# == pyFAI calibration ==
# SplineFile: None
# PixelSize: 7.900e-05, 7.900e-05 m
# PONI: 1.411e-01, 1.028e-01 m
# Distance Sample to Detector: 0.252389920345 m
# Rotations: 0.001947 0.002954 0.000003 rad
# 
# == Fit2d calibration ==
# Distance Sample-beamCenter: 252.392 mm
# Center: x=1295.273, y=1795.185 pix
# Tilt: 0.203 deg  TiltPlanRot: 123.397 deg
# 
# Wavelength: 8.603e-11
# Polarization factor: 0.99
# Normalization factor: None
#
# 2th_deg	 I
3.335335913E+00  6.535044922E+03
3.345515043E+00  6.529142578E+03
3.355694174E+00  6.572517578E+03
3.365873304E+00  6.640692871E+03
3.376052435E+00  6.630169922E+03
3.386231566E+00  6.626899414E+03
3.396410696E+00  6.669232910E+03
3.406589827E+00  6.707162109E+03
3.416768958E+00  6.731397949E+03
3.426948088E+00  6.761590820E+03
3.437127219E+00  6.779131348E+03
3.447306349E+00  6.783128418E+03
3.457485480E+00  6.792318848E+03
3.467664611E+00  6.774187012E+03
3.477843741E+00  6.753107422E+03
3.488022872E+00  6.757357422E+03
3.498202002E+00  6.775165039E+03
3.508381133E+00  6.789760742E+03
3.518560264E+00  6.798682617E+03
3.528739394E+00  6.822552246E+03
3.538918525E+00  6.855210449E+03
3.549097656E+00  6.875121094E+03
3.559276786E+00  6.893010254E+03
3.569455917E+00  6.933943359E+03
3.579635047E+00  6.955632812E+03
3.589814178E+00  6.972797852E+03
3.599993309E+00  6.981708008E+03
3.610172439E+00  6.988631836E+03
3.620351570E+00  7.023325684E+03
3.630530701E+00  7.046112793E+03
3.640709831E+00  7.032109375E+03
3.650888962E+00  7.033026367E+03
3.661068092E+00  7.041373535E+03
3.671247223E+00  7.049458496E+03
3.681426354E+00  7.056924316E+03
3.691605484E+00  7.083625977E+03
3.701784615E+00  7.100617188E+03
3.711963745E+00  7.108756836E+03
3.722142876E+00  7.092670898E+03
3.732322007E+00  7.101104004E+03
3.742501137E+00  7.132134766E+03
3.752680268E+00  7.136067383E+03
3.762859399E+00  7.122711426E+03
3.773038529E+00  7.137134277E+03
3.783217660E+00  7.150374512E+03
3.793396790E+00  7.160257324E+03
3.803575921E+00  7.159937012E+03
3.813755052E+00  7.138614746E+03
3.823934182E+00  7.127822266E+03
3.834113313E+00  7.123806152E+03
3.844292444E+00  7.132365234E+03
3.854471574E+00  7.151588379E+03
3.864650705E+00  7.160212891E+03
3.874829835E+00  7.172110352E+03
3.885008966E+00  7.180725586E+03
3.895188097E+00  7.191359863E+03
3.905367227E+00  7.189323242E+03
3.915546358E+00  7.173104492E+03
3.925725488E+00  7.153392578E+03
3.935904619E+00  7.148842773E+03
3.946083750E+00  7.157924316E+03
3.956262880E+00  7.163000977E+03
3.966442011E+00  7.181418457E+03
3.976621142E+00  7.185218750E+03
3.986800272E+00  7.190662598E+03
3.996979403E+00  7.194807617E+03
4.007158533E+00  7.196426270E+03
4.017337664E+00  7.198176270E+03
4.027516795E+00  7.201543457E+03
4.037695925E+00  7.195384277E+03
4.047875056E+00  7.185997559E+03
4.058054187E+00  7.179860840E+03
4.068233317E+00  7.165080566E+03
4.078412448E+00  7.163423340E+03
4.088591578E+00  7.174031738E+03
4.098770709E+00  7.181280273E+03
4.108949840E+00  7.197186523E+03
4.119128970E+00  7.192750977E+03
4.129308101E+00  7.188659180E+03
4.139487231E+00  7.179268555E+03
4.149666362E+00  7.169865723E+03
4.159845493E+00  7.172262207E+03
4.170024623E+00  7.180836914E+03
4.180203754E+00  7.191664551E+03
4.190382885E+00  7.199421875E+03
4.200562015E+00  7.193847656E+03
4.210741146E+00  7.180316895E+03
4.220920276E+00  7.183885742E+03
4.231099407E+00  7.191408203E+03
4.241278538E+00  7.190620605E+03
4.251457668E+00  7.186160645E+03
4.261636799E+00  7.174792969E+03
4.271815930E+00  7.164033203E+03
4.281995060E+00  7.163000000E+03
4.292174191E+00  7.173044434E+03
4.302353321E+00  7.160167969E+03
4.312532452E+00  7.142324707E+03
4.322711583E+00  7.145414551E+03
4.332890713E+00  7.166019043E+03
4.343069844E+00  7.178875977E+03
4.353248974E+00  7.179520020E+03
4.363428105E+00  7.176698730E+03
4.373607236E+00  7.171862793E+03
4.383786366E+00  7.166479492E+03
4.393965497E+00  7.152663574E+03
4.404144628E+00  7.146020996E+03
4.414323758E+00  7.154614746E+03
4.424502889E+00  7.171385742E+03
4.434682019E+00  7.192175293E+03
4.444861150E+00  7.192342285E+03
4.455040281E+00  7.178966797E+03
4.465219411E+00  7.160640625E+03
4.475398542E+00  7.156236328E+03
4.485577673E+00  7.162052246E+03
4.495756803E+00  7.163520996E+03
4.505935934E+00  7.162466797E+03
4.516115064E+00  7.161653809E+03
4.526294195E+00  7.156510742E+03
4.536473326E+00  7.154781738E+03
4.546652456E+00  7.157330566E+03
4.556831587E+00  7.159117188E+03
4.567010717E+00  7.165113281E+03
4.577189848E+00  7.155125488E+03
4.587368979E+00  7.139616699E+03
4.597548109E+00  7.127864746E+03
4.607727240E+00  7.134285156E+03
4.617906371E+00  7.137131836E+03
4.628085501E+00  7.138663086E+03
4.638264632E+00  7.140674805E+03
4.648443762E+00  7.141638672E+03
4.658622893E+00  7.146961426E+03
4.668802024E+00  7.147832520E+03
4.678981154E+00  7.147917480E+03
4.689160285E+00  7.147172363E+03
4.699339415E+00  7.139717285E+03
4.709518546E+00  7.128078125E+03
4.719697677E+00  7.126404785E+03
4.729876807E+00  7.127645508E+03
4.740055938E+00  7.125273438E+03
4.750235069E+00  7.123491211E+03
4.760414199E+00  7.116423340E+03
4.770593330E+00  7.109785645E+03
4.780772460E+00  7.112073730E+03
4.790951591E+00  7.115772461E+03
4.801130722E+00  7.110446289E+03
4.811309852E+00  7.104980957E+03
4.821488983E+00  7.106854004E+03
4.831668114E+00  7.105434570E+03
4.841847244E+00  7.107747070E+03
4.852026375E+00  7.114655762E+03
4.862205505E+00  7.118103027E+03
4.872384636E+00  7.113253906E+03
4.882563767E+00  7.105236328E+03
4.892742897E+00  7.099964355E+03
4.902922028E+00  7.087589355E+03
4.913101158E+00  7.085040039E+03
4.923280289E+00  7.088789551E+03
4.933459420E+00  7.090059082E+03
4.943638550E+00  7.090991211E+03
4.953817681E+00  7.089810059E+03
4.963996812E+00  7.087018066E+03
4.974175942E+00  7.078660645E+03
4.984355073E+00  7.061249023E+03
4.994534203E+00  7.049905762E+03
5.004713334E+00  7.046035156E+03
5.014892465E+00  7.045322266E+03
5.025071595E+00  7.047916504E+03
5.035250726E+00  7.050203125E+03
5.045429857E+00  7.048559082E+03
5.055608987E+00  7.048893066E+03
5.065788118E+00  7.049444824E+03
5.075967248E+00  7.050018066E+03
5.086146379E+00  7.049269531E+03
5.096325510E+00  7.045586914E+03
5.106504640E+00  7.034340332E+03
5.116683771E+00  7.024760254E+03
5.126862901E+00  7.023573242E+03
5.137042032E+00  7.023268555E+03
5.147221163E+00  7.025452637E+03
5.157400293E+00  7.031081055E+03
5.167579424E+00  7.039243652E+03
5.177758555E+00  7.045973633E+03
5.187937685E+00  7.043934570E+03
5.198116816E+00  7.036756836E+03
5.208295946E+00  7.034674805E+03
5.218475077E+00  7.035656738E+03
5.228654208E+00  7.039348633E+03
5.238833338E+00  7.038535645E+03
5.249012469E+00  7.035190918E+03
5.259191600E+00  7.028949219E+03
5.269370730E+00  7.025556641E+03
5.279549861E+00  7.033165039E+03
5.289728991E+00  7.044514160E+03
5.299908122E+00  7.055716797E+03
5.310087253E+00  7.051962891E+03
5.320266383E+00  7.041542969E+03
5.330445514E+00  7.036937500E+03
5.340624644E+00  7.033069336E+03
5.350803775E+00  7.026361816E+03
5.360982906E+00  7.024626465E+03
5.371162036E+00  7.029048340E+03
5.381341167E+00  7.025693359E+03
5.391520298E+00  7.017031738E+03
5.401699428E+00  7.011401855E+03
5.411878559E+00  7.010574707E+03
5.422057689E+00  7.013700195E+03
5.432236820E+00  7.014571777E+03
5.442415951E+00  7.003729004E+03
5.452595081E+00  6.983783203E+03
5.462774212E+00  6.972879395E+03
5.472953343E+00  6.969840820E+03
5.483132473E+00  6.970608887E+03
5.493311604E+00  6.972659180E+03
5.503490734E+00  6.974640137E+03
5.513669865E+00  6.969873047E+03
5.523848996E+00  6.957165527E+03
5.534028126E+00  6.947962402E+03
5.544207257E+00  6.945487305E+03
5.554386387E+00  6.944852539E+03
5.564565518E+00  6.932015625E+03
5.574744649E+00  6.921270020E+03
5.584923779E+00  6.913204590E+03
5.595102910E+00  6.904156250E+03
5.605282041E+00  6.902122070E+03
5.615461171E+00  6.904585449E+03
5.625640302E+00  6.902070801E+03
5.635819432E+00  6.889212891E+03
5.645998563E+00  6.878608887E+03
5.656177694E+00  6.868691895E+03
5.666356824E+00  6.868610352E+03
5.676535955E+00  6.869295898E+03
5.686715086E+00  6.866945801E+03
5.696894216E+00  6.860141602E+03
5.707073347E+00  6.856043945E+03
5.717252477E+00  6.849327637E+03
5.727431608E+00  6.841429199E+03
5.737610739E+00  6.830469727E+03
5.747789869E+00  6.818035156E+03
5.757969000E+00  6.807379395E+03
5.768148130E+00  6.798285156E+03
5.778327261E+00  6.794067383E+03
5.788506392E+00  6.791473145E+03
5.798685522E+00  6.787123047E+03
5.808864653E+00  6.783359375E+03
5.819043784E+00  6.784792969E+03
5.829222914E+00  6.782551270E+03
5.839402045E+00  6.773266602E+03
5.849581175E+00  6.756727539E+03
5.859760306E+00  6.747384277E+03
5.869939437E+00  6.744907715E+03
5.880118567E+00  6.745135254E+03
5.890297698E+00  6.741111816E+03
5.900476829E+00  6.739324707E+03
5.910655959E+00  6.731085449E+03
5.920835090E+00  6.721073242E+03
5.931014220E+00  6.713644531E+03
5.941193351E+00  6.710004883E+03
5.951372482E+00  6.706011230E+03
5.961551612E+00  6.703612305E+03
5.971730743E+00  6.703208008E+03
5.981909873E+00  6.702602539E+03
5.992089004E+00  6.695599121E+03
6.002268135E+00  6.687827637E+03
6.012447265E+00  6.684958984E+03
6.022626396E+00  6.676435547E+03
6.032805527E+00  6.660535645E+03
6.042984657E+00  6.654637695E+03
6.053163788E+00  6.651649902E+03
6.063342918E+00  6.647585449E+03
6.073522049E+00  6.644049805E+03
6.083701180E+00  6.642973145E+03
6.093880310E+00  6.642648926E+03
6.104059441E+00  6.635493652E+03
6.114238572E+00  6.629907227E+03
6.124417702E+00  6.619009277E+03
6.134596833E+00  6.608999512E+03
6.144775963E+00  6.605855957E+03
6.154955094E+00  6.606042480E+03
6.165134225E+00  6.607618652E+03
6.175313355E+00  6.606948242E+03
6.185492486E+00  6.601202148E+03
6.195671616E+00  6.595627441E+03
6.205850747E+00  6.594492676E+03
6.216029878E+00  6.591059570E+03
6.226209008E+00  6.587995117E+03
6.236388139E+00  6.579269043E+03
6.246567270E+00  6.569437988E+03
6.256746400E+00  6.559649902E+03
6.266925531E+00  6.550779297E+03
6.277104661E+00  6.540785645E+03
6.287283792E+00  6.535948242E+03
6.297462923E+00  6.530586914E+03
6.307642053E+00  6.525138672E+03
6.317821184E+00  6.517449219E+03
6.328000315E+00  6.507379883E+03
6.338179445E+00  6.505188477E+03
6.348358576E+00  6.503424316E+03
6.358537706E+00  6.504934570E+03
6.368716837E+00  6.501104980E+03
6.378895968E+00  6.489883789E+03
6.389075098E+00  6.484246582E+03
6.399254229E+00  6.484210449E+03
6.409433359E+00  6.485139648E+03
6.419612490E+00  6.483101074E+03
6.429791621E+00  6.473301270E+03
6.439970751E+00  6.466550293E+03
6.450149882E+00  6.461068848E+03
6.460329013E+00  6.462561523E+03
6.470508143E+00  6.459795410E+03
6.480687274E+00  6.455347168E+03
6.490866404E+00  6.448486816E+03
6.501045535E+00  6.439108398E+03
6.511224666E+00  6.431361328E+03
6.521403796E+00  6.427735352E+03
6.531582927E+00  6.421510742E+03
6.541762058E+00  6.417125488E+03
6.551941188E+00  6.410917480E+03
6.562120319E+00  6.405031250E+03
6.572299449E+00  6.401560059E+03
6.582478580E+00  6.399371582E+03
6.592657711E+00  6.400213867E+03
6.602836841E+00  6.399619141E+03
6.613015972E+00  6.394316406E+03
6.623195102E+00  6.382779785E+03
6.633374233E+00  6.374476562E+03
6.643553364E+00  6.371873047E+03
6.653732494E+00  6.364511719E+03
6.663911625E+00  6.353256836E+03
6.674090756E+00  6.341584961E+03
6.684269886E+00  6.331128906E+03
6.694449017E+00  6.321351562E+03
6.704628147E+00  6.315522949E+03
6.714807278E+00  6.314065430E+03
6.724986409E+00  6.309818359E+03
6.735165539E+00  6.299454590E+03
6.745344670E+00  6.290608398E+03
6.755523800E+00  6.281013672E+03
6.765702931E+00  6.275652344E+03
6.775882062E+00  6.269739746E+03
6.786061192E+00  6.270867676E+03
6.796240323E+00  6.268339844E+03
6.806419454E+00  6.265323730E+03
6.816598584E+00  6.258661133E+03
6.826777715E+00  6.249595703E+03
6.836956845E+00  6.244981445E+03
6.847135976E+00  6.239445801E+03
6.857315107E+00  6.234545410E+03
6.867494237E+00  6.224734863E+03
6.877673368E+00  6.217546387E+03
6.887852499E+00  6.214488281E+03
6.898031629E+00  6.212506836E+03
6.908210760E+00  6.209240723E+03
6.918389890E+00  6.206421875E+03
6.928569021E+00  6.199836426E+03
6.938748152E+00  6.189038574E+03
6.948927282E+00  6.178199707E+03
6.959106413E+00  6.169807129E+03
6.969285543E+00  6.161654785E+03
6.979464674E+00  6.153792480E+03
6.989643805E+00  6.149387207E+03
6.999822935E+00  6.141027832E+03
7.010002066E+00  6.136805176E+03
7.020181197E+00  6.135288086E+03
7.030360327E+00  6.128623535E+03
7.040539458E+00  6.117606445E+03
7.050718588E+00  6.113134277E+03
7.060897719E+00  6.108925781E+03
7.071076850E+00  6.105744629E+03
7.081255980E+00  6.101955566E+03
7.091435111E+00  6.094427246E+03
7.101614242E+00  6.086028320E+03
7.111793372E+00  6.082208008E+03
7.121972503E+00  6.074607910E+03
7.132151633E+00  6.070724121E+03
7.142330764E+00  6.064745117E+03
7.152509895E+00  6.059115234E+03
7.162689025E+00  6.050490234E+03
7.172868156E+00  6.042432129E+03
7.183047286E+00  6.035657227E+03
7.193226417E+00  6.027442383E+03
7.203405548E+00  6.020707031E+03
7.213584678E+00  6.018321289E+03
7.223763809E+00  6.020714844E+03
7.233942940E+00  6.021146484E+03
7.244122070E+00  6.015250488E+03
7.254301201E+00  6.008672852E+03
7.264480331E+00  5.997192383E+03
7.274659462E+00  5.987076660E+03
7.284838593E+00  5.981308105E+03
7.295017723E+00  5.978530273E+03
7.305196854E+00  5.973665039E+03
7.315375985E+00  5.968281250E+03
7.325555115E+00  5.959606934E+03
7.335734246E+00  5.952704590E+03
7.345913376E+00  5.947316895E+03
7.356092507E+00  5.939593750E+03
7.366271638E+00  5.931145020E+03
7.376450768E+00  5.923582031E+03
7.386629899E+00  5.918725586E+03
7.396809029E+00  5.915628906E+03
7.406988160E+00  5.911466797E+03
7.417167291E+00  5.905793945E+03
7.427346421E+00  5.897137207E+03
7.437525552E+00  5.884408691E+03
7.447704683E+00  5.876817383E+03
7.457883813E+00  5.871537598E+03
7.468062944E+00  5.866566895E+03
7.478242074E+00  5.861079590E+03
7.488421205E+00  5.856954590E+03
7.498600336E+00  5.853615234E+03
7.508779466E+00  5.845114746E+03
7.518958597E+00  5.834563477E+03
7.529137728E+00  5.824192383E+03
7.539316858E+00  5.821440430E+03
7.549495989E+00  5.816304199E+03
7.559675119E+00  5.810699219E+03
7.569854250E+00  5.799726562E+03
7.580033381E+00  5.789856445E+03
7.590212511E+00  5.782731934E+03
7.600391642E+00  5.775114746E+03
7.610570772E+00  5.766703125E+03
7.620749903E+00  5.759160645E+03
7.630929034E+00  5.754111328E+03
7.641108164E+00  5.749109375E+03
7.651287295E+00  5.743362305E+03
7.661466426E+00  5.739873047E+03
7.671645556E+00  5.736436523E+03
7.681824687E+00  5.726722168E+03
7.692003817E+00  5.720111816E+03
7.702182948E+00  5.713404297E+03
7.712362079E+00  5.702161133E+03
7.722541209E+00  5.692080078E+03
7.732720340E+00  5.689196289E+03
7.742899471E+00  5.682600098E+03
7.753078601E+00  5.675711426E+03
7.763257732E+00  5.669625488E+03
7.773436862E+00  5.661621094E+03
7.783615993E+00  5.652619141E+03
7.793795124E+00  5.645199707E+03
7.803974254E+00  5.639735352E+03
7.814153385E+00  5.630571777E+03
7.824332515E+00  5.620936523E+03
7.834511646E+00  5.609615234E+03
7.844690777E+00  5.602395996E+03
7.854869907E+00  5.602761230E+03
7.865049038E+00  5.602525879E+03
7.875228169E+00  5.595118164E+03
7.885407299E+00  5.586274414E+03
7.895586430E+00  5.580164062E+03
7.905765560E+00  5.574390137E+03
7.915944691E+00  5.568269043E+03
7.926123822E+00  5.561990723E+03
7.936302952E+00  5.552624023E+03
7.946482083E+00  5.545496582E+03
7.956661214E+00  5.537594238E+03
7.966840344E+00  5.525788574E+03
7.977019475E+00  5.514805664E+03
7.987198605E+00  5.507728027E+03
7.997377736E+00  5.504226074E+03
8.007556867E+00  5.500129883E+03
8.017735997E+00  5.495116211E+03
8.027915128E+00  5.488016602E+03
8.038094258E+00  5.483529785E+03
8.048273389E+00  5.482259766E+03
8.058452520E+00  5.475269531E+03
8.068631650E+00  5.462249512E+03
8.078810781E+00  5.450225586E+03
8.088989912E+00  5.443685547E+03
8.099169042E+00  5.437778809E+03
8.109348173E+00  5.427532227E+03
8.119527303E+00  5.419225098E+03
8.129706434E+00  5.414118652E+03
8.139885565E+00  5.405531250E+03
8.150064695E+00  5.393562988E+03
8.160243826E+00  5.385925293E+03
8.170422957E+00  5.383283691E+03
8.180602087E+00  5.377581055E+03
8.190781218E+00  5.371699707E+03
8.200960348E+00  5.365070801E+03
8.211139479E+00  5.359145020E+03
8.221318610E+00  5.354126953E+03
8.231497740E+00  5.347735352E+03
8.241676871E+00  5.338341309E+03
8.251856001E+00  5.330418457E+03
8.262035132E+00  5.324095703E+03
8.272214263E+00  5.317614746E+03
8.282393393E+00  5.307493164E+03
8.292572524E+00  5.297470215E+03
8.302751655E+00  5.289097168E+03
8.312930785E+00  5.283735840E+03
8.323109916E+00  5.279265625E+03
8.333289046E+00  5.276703613E+03
8.343468177E+00  5.269853516E+03
8.353647308E+00  5.259395508E+03
8.363826438E+00  5.249522949E+03
8.374005569E+00  5.242188477E+03
8.384184700E+00  5.236325684E+03
8.394363830E+00  5.226701660E+03
8.404542961E+00  5.213859375E+03
8.414722091E+00  5.205495605E+03
8.424901222E+00  5.201108887E+03
8.435080353E+00  5.200847168E+03
8.445259483E+00  5.198348145E+03
8.455438614E+00  5.192015137E+03
8.465617744E+00  5.188220703E+03
8.475796875E+00  5.184455566E+03
8.485976006E+00  5.179385742E+03
8.496155136E+00  5.170451660E+03
8.506334267E+00  5.161651367E+03
8.516513398E+00  5.158796387E+03
8.526692528E+00  5.156397461E+03
8.536871659E+00  5.150144531E+03
8.547050789E+00  5.142174316E+03
8.557229920E+00  5.134009766E+03
8.567409051E+00  5.124166504E+03
8.577588181E+00  5.113122070E+03
8.587767312E+00  5.103496094E+03
8.597946443E+00  5.094448730E+03
8.608125573E+00  5.082745605E+03
8.618304704E+00  5.074484375E+03
8.628483834E+00  5.072862793E+03
8.638662965E+00  5.070837402E+03
8.648842096E+00  5.067445801E+03
8.659021226E+00  5.061739746E+03
8.669200357E+00  5.054092285E+03
8.679379487E+00  5.041537598E+03
8.689558618E+00  5.029602539E+03
8.699737749E+00  5.020575684E+03
8.709916879E+00  5.014158203E+03
8.720096010E+00  5.013871582E+03
8.730275141E+00  5.013161621E+03
8.740454271E+00  5.008854980E+03
8.750633402E+00  4.994977051E+03
8.760812532E+00  4.981550293E+03
8.770991663E+00  4.972200195E+03
8.781170794E+00  4.964495605E+03
8.791349924E+00  4.956825684E+03
8.801529055E+00  4.946544922E+03
8.811708185E+00  4.939808105E+03
8.821887316E+00  4.936206055E+03
8.832066447E+00  4.930731445E+03
8.842245577E+00  4.927247070E+03
8.852424708E+00  4.924045898E+03
8.862603839E+00  4.921280762E+03
8.872782969E+00  4.912609863E+03
8.882962100E+00  4.901492188E+03
8.893141230E+00  4.893763184E+03
8.903320361E+00  4.890029297E+03
8.913499492E+00  4.886465820E+03
8.923678622E+00  4.878720215E+03
8.933857753E+00  4.865823242E+03
8.944036884E+00  4.856714844E+03
8.954216014E+00  4.853195801E+03
8.964395145E+00  4.846955078E+03
8.974574275E+00  4.843110840E+03
8.984753406E+00  4.840556152E+03
8.994932537E+00  4.836931641E+03
9.005111667E+00  4.830554199E+03
9.015290798E+00  4.824039062E+03
9.025469928E+00  4.813526855E+03
9.035649059E+00  4.803061523E+03
9.045828190E+00  4.795408691E+03
9.056007320E+00  4.790547852E+03
9.066186451E+00  4.784813477E+03
9.076365582E+00  4.780156738E+03
9.086544712E+00  4.772773438E+03
9.096723843E+00  4.765920898E+03
9.106902973E+00  4.759118164E+03
9.117082104E+00  4.753933594E+03
9.127261235E+00  4.746894043E+03
9.137440365E+00  4.737939453E+03
9.147619496E+00  4.730202148E+03
9.157798627E+00  4.727896484E+03
9.167977757E+00  4.724685059E+03
9.178156888E+00  4.716515137E+03
9.188336018E+00  4.708223633E+03
9.198515149E+00  4.701221191E+03
9.208694280E+00  4.694168945E+03
9.218873410E+00  4.686458984E+03
9.229052541E+00  4.676314453E+03
9.239231671E+00  4.667034180E+03
9.249410802E+00  4.662996094E+03
9.259589933E+00  4.661948730E+03
9.269769063E+00  4.660719238E+03
9.279948194E+00  4.656018066E+03
9.290127325E+00  4.646496582E+03
9.300306455E+00  4.635978027E+03
9.310485586E+00  4.626990723E+03
9.320664716E+00  4.621095215E+03
9.330843847E+00  4.618318848E+03
9.341022978E+00  4.616326660E+03
9.351202108E+00  4.610029297E+03
9.361381239E+00  4.600649414E+03
9.371560370E+00  4.591249023E+03
9.381739500E+00  4.582939941E+03
9.391918631E+00  4.576018066E+03
9.402097761E+00  4.567295898E+03
9.412276892E+00  4.558274414E+03
9.422456023E+00  4.552131348E+03
9.432635153E+00  4.547186035E+03
9.442814284E+00  4.542301758E+03
9.452993414E+00  4.538235840E+03
9.463172545E+00  4.535067383E+03
9.473351676E+00  4.530707031E+03
9.483530806E+00  4.523653809E+03
9.493709937E+00  4.512471680E+03
9.503889068E+00  4.500062988E+03
9.514068198E+00  4.492144531E+03
9.524247329E+00  4.485392090E+03
9.534426459E+00  4.479799316E+03
9.544605590E+00  4.473561035E+03
9.554784721E+00  4.465272461E+03
9.564963851E+00  4.458763672E+03
9.575142982E+00  4.454208496E+03
9.585322113E+00  4.450088867E+03
9.595501243E+00  4.446092285E+03
9.605680374E+00  4.442526855E+03
9.615859504E+00  4.438545898E+03
9.626038635E+00  4.433226074E+03
9.636217766E+00  4.427684570E+03
9.646396896E+00  4.419206055E+03
9.656576027E+00  4.411538574E+03
9.666755157E+00  4.409326172E+03
9.676934288E+00  4.408842285E+03
9.687113419E+00  4.405732910E+03
9.697292549E+00  4.399371582E+03
9.707471680E+00  4.390225586E+03
9.717650811E+00  4.380109375E+03
9.727829941E+00  4.370879395E+03
9.738009072E+00  4.362010254E+03
9.748188202E+00  4.352945312E+03
9.758367333E+00  4.349466309E+03
9.768546464E+00  4.346940430E+03
9.778725594E+00  4.339887695E+03
9.788904725E+00  4.335529297E+03
9.799083856E+00  4.332010742E+03
9.809262986E+00  4.324765137E+03
9.819442117E+00  4.314390625E+03
9.829621247E+00  4.302770508E+03
9.839800378E+00  4.292744141E+03
9.849979509E+00  4.287294434E+03
9.860158639E+00  4.285348633E+03
9.870337770E+00  4.282597656E+03
9.880516900E+00  4.276537598E+03
9.890696031E+00  4.270278809E+03
9.900875162E+00  4.265613770E+03
9.911054292E+00  4.259107422E+03
9.921233423E+00  4.251963379E+03
9.931412554E+00  4.245520996E+03
9.941591684E+00  4.243811035E+03
9.951770815E+00  4.238588379E+03
9.961949945E+00  4.228976562E+03
9.972129076E+00  4.222277832E+03
9.982308207E+00  4.217557617E+03
9.992487337E+00  4.212387695E+03
1.000266647E+01  4.203735352E+03
1.001284560E+01  4.193598145E+03
1.002302473E+01  4.185688965E+03
1.003320386E+01  4.180766113E+03
1.004338299E+01  4.177030762E+03
1.005356212E+01  4.172819824E+03
1.006374125E+01  4.167865234E+03
1.007392038E+01  4.160878418E+03
1.008409951E+01  4.154467773E+03
1.009427864E+01  4.148619141E+03
1.010445777E+01  4.144896484E+03
1.011463690E+01  4.139982910E+03
1.012481604E+01  4.131374023E+03
1.013499517E+01  4.123874023E+03
1.014517430E+01  4.117078613E+03
1.015535343E+01  4.107799316E+03
1.016553256E+01  4.099732910E+03
1.017571169E+01  4.093512939E+03
1.018589082E+01  4.087883301E+03
1.019606995E+01  4.084554932E+03
1.020624908E+01  4.082654785E+03
1.021642821E+01  4.078447510E+03
1.022660734E+01  4.070678467E+03
1.023678647E+01  4.063671387E+03
1.024696560E+01  4.057450928E+03
1.025714473E+01  4.052921387E+03
1.026732386E+01  4.047446289E+03
1.027750299E+01  4.041613770E+03
1.028768213E+01  4.033144287E+03
1.029786126E+01  4.025519043E+03
1.030804039E+01  4.020947998E+03
1.031821952E+01  4.019215088E+03
1.032839865E+01  4.013461182E+03
1.033857778E+01  4.003610352E+03
1.034875691E+01  3.994816895E+03
1.035893604E+01  3.991437012E+03
1.036911517E+01  3.988977051E+03
1.037929430E+01  3.981547852E+03
1.038947343E+01  3.973476318E+03
1.039965256E+01  3.967177246E+03
1.040983169E+01  3.962140381E+03
1.042001082E+01  3.956595703E+03
1.043018995E+01  3.950746094E+03
1.044036908E+01  3.943277100E+03
1.045054822E+01  3.933540527E+03
1.046072735E+01  3.924971436E+03
1.047090648E+01  3.921261963E+03
1.048108561E+01  3.920143799E+03
1.049126474E+01  3.915772705E+03
1.050144387E+01  3.912060059E+03
1.051162300E+01  3.907070068E+03
1.052180213E+01  3.898236572E+03
1.053198126E+01  3.887719238E+03
1.054216039E+01  3.879904785E+03
1.055233952E+01  3.878179688E+03
1.056251865E+01  3.877076172E+03
1.057269778E+01  3.870592041E+03
1.058287691E+01  3.862788818E+03
1.059305604E+01  3.854598145E+03
1.060323517E+01  3.846758057E+03
1.061341431E+01  3.840240723E+03
1.062359344E+01  3.834722168E+03
1.063377257E+01  3.828264404E+03
1.064395170E+01  3.821650635E+03
1.065413083E+01  3.816741211E+03
1.066430996E+01  3.816780029E+03
1.067448909E+01  3.816297363E+03
1.068466822E+01  3.809845459E+03
1.069484735E+01  3.800867432E+03
1.070502648E+01  3.791801514E+03
1.071520561E+01  3.786412354E+03
1.072538474E+01  3.783993164E+03
1.073556387E+01  3.781614502E+03
1.074574300E+01  3.778574707E+03
1.075592213E+01  3.773709717E+03
1.076610126E+01  3.767567139E+03
1.077628039E+01  3.760964600E+03
1.078645953E+01  3.753731201E+03
1.079663866E+01  3.749814941E+03
1.080681779E+01  3.746015625E+03
1.081699692E+01  3.740405029E+03
1.082717605E+01  3.732520020E+03
1.083735518E+01  3.726371094E+03
1.084753431E+01  3.720836426E+03
1.085771344E+01  3.714835205E+03
1.086789257E+01  3.709142090E+03
1.087807170E+01  3.706950439E+03
1.088825083E+01  3.703734131E+03
1.089842996E+01  3.697903320E+03
1.090860909E+01  3.692387207E+03
1.091878822E+01  3.686754639E+03
1.092896735E+01  3.679610840E+03
1.093914648E+01  3.674115234E+03
1.094932562E+01  3.669742676E+03
1.095950475E+01  3.662799316E+03
1.096968388E+01  3.656815674E+03
1.097986301E+01  3.654158936E+03
1.099004214E+01  3.651868408E+03
1.100022127E+01  3.647754639E+03
1.101040040E+01  3.642840820E+03
1.102057953E+01  3.637291016E+03
1.103075866E+01  3.632318848E+03
1.104093779E+01  3.628417725E+03
1.105111692E+01  3.626874756E+03
1.106129605E+01  3.623098389E+03
1.107147518E+01  3.614045898E+03
1.108165431E+01  3.604382568E+03
1.109183344E+01  3.600903809E+03
1.110201257E+01  3.597841797E+03
1.111219171E+01  3.595165771E+03
1.112237084E+01  3.589838867E+03
1.113254997E+01  3.583423340E+03
1.114272910E+01  3.576978271E+03
1.115290823E+01  3.574505127E+03
1.116308736E+01  3.573322998E+03
1.117326649E+01  3.570086670E+03
1.118344562E+01  3.565563965E+03
1.119362475E+01  3.561405518E+03
1.120380388E+01  3.559592041E+03
1.121398301E+01  3.558638184E+03
1.122416214E+01  3.556586182E+03
1.123434127E+01  3.554345215E+03
1.124452040E+01  3.546287598E+03
1.125469953E+01  3.540339844E+03
1.126487866E+01  3.536957031E+03
1.127505780E+01  3.532287598E+03
1.128523693E+01  3.528455078E+03
1.129541606E+01  3.526857910E+03
1.130559519E+01  3.525919922E+03
1.131577432E+01  3.521482910E+03
1.132595345E+01  3.514506836E+03
1.133613258E+01  3.509663086E+03
1.134631171E+01  3.506858154E+03
1.135649084E+01  3.504110596E+03
1.136666997E+01  3.499177002E+03
1.137684910E+01  3.493605957E+03
1.138702823E+01  3.488997559E+03
1.139720736E+01  3.483877930E+03
1.140738649E+01  3.476906738E+03
1.141756562E+01  3.472107666E+03
1.142774475E+01  3.468809326E+03
1.143792389E+01  3.464909912E+03
1.144810302E+01  3.459564209E+03
1.145828215E+01  3.455874756E+03
1.146846128E+01  3.456192383E+03
1.147864041E+01  3.453091064E+03
1.148881954E+01  3.446009277E+03
1.149899867E+01  3.439380127E+03
1.150917780E+01  3.439187500E+03
1.151935693E+01  3.436738037E+03
1.152953606E+01  3.433077881E+03
1.153971519E+01  3.431016846E+03
1.154989432E+01  3.430485840E+03
1.156007345E+01  3.429391846E+03
1.157025258E+01  3.426451172E+03
1.158043171E+01  3.420785156E+03
1.159061084E+01  3.415523193E+03
1.160078998E+01  3.411831055E+03
1.161096911E+01  3.412194824E+03
1.162114824E+01  3.407150146E+03
1.163132737E+01  3.399823486E+03
1.164150650E+01  3.394000732E+03
1.165168563E+01  3.391585693E+03
1.166186476E+01  3.388473633E+03
1.167204389E+01  3.387624268E+03
1.168222302E+01  3.386578125E+03
1.169240215E+01  3.384503662E+03
1.170258128E+01  3.380908203E+03
1.171276041E+01  3.375668945E+03
1.172293954E+01  3.369968506E+03
1.173311867E+01  3.364557861E+03
1.174329780E+01  3.360736816E+03
1.175347693E+01  3.359670898E+03
1.176365606E+01  3.358459717E+03
1.177383520E+01  3.355339844E+03
1.178401433E+01  3.349641357E+03
1.179419346E+01  3.342610840E+03
1.180437259E+01  3.335268799E+03
1.181455172E+01  3.331005859E+03
1.182473085E+01  3.328312012E+03
1.183490998E+01  3.326262207E+03
1.184508911E+01  3.325200684E+03
1.185526824E+01  3.322344971E+03
1.186544737E+01  3.319623535E+03
1.187562650E+01  3.315685791E+03
1.188580563E+01  3.313809082E+03
1.189598476E+01  3.309208008E+03
1.190616389E+01  3.303978516E+03
1.191634302E+01  3.301129883E+03
1.192652215E+01  3.300044434E+03
1.193670129E+01  3.298707031E+03
1.194688042E+01  3.296641113E+03
1.195705955E+01  3.292026855E+03
1.196723868E+01  3.286069092E+03
1.197741781E+01  3.280025391E+03
1.198759694E+01  3.278075195E+03
1.199777607E+01  3.276847900E+03
1.200795520E+01  3.274151611E+03
1.201813433E+01  3.271772949E+03
1.202831346E+01  3.267897949E+03
1.203849259E+01  3.261217041E+03
1.204867172E+01  3.255103516E+03
1.205885085E+01  3.252446289E+03
1.206902998E+01  3.251620605E+03
1.207920911E+01  3.250510742E+03
1.208938824E+01  3.247586670E+03
1.209956738E+01  3.242846191E+03
1.210974651E+01  3.238785400E+03
1.211992564E+01  3.236013672E+03
1.213010477E+01  3.235251709E+03
1.214028390E+01  3.230676514E+03
1.215046303E+01  3.223961670E+03
1.216064216E+01  3.218450684E+03
1.217082129E+01  3.212455078E+03
1.218100042E+01  3.209316162E+03
1.219117955E+01  3.209100586E+03
1.220135868E+01  3.208741211E+03
1.221153781E+01  3.204176514E+03
1.222171694E+01  3.198794189E+03
1.223189607E+01  3.194162354E+03
1.224207520E+01  3.190649902E+03
1.225225433E+01  3.187552734E+03
1.226243347E+01  3.184821533E+03
1.227261260E+01  3.180996582E+03
1.228279173E+01  3.177808594E+03
1.229297086E+01  3.175566895E+03
1.230314999E+01  3.172958008E+03
1.231332912E+01  3.168153809E+03
1.232350825E+01  3.163391113E+03
1.233368738E+01  3.160021484E+03
1.234386651E+01  3.157568604E+03
1.235404564E+01  3.153181152E+03
1.236422477E+01  3.148979492E+03
1.237440390E+01  3.145284180E+03
1.238458303E+01  3.141940430E+03
1.239476216E+01  3.138157227E+03
1.240494129E+01  3.133926514E+03
1.241512042E+01  3.130716553E+03
1.242529956E+01  3.126856934E+03
1.243547869E+01  3.123300049E+03
1.244565782E+01  3.120402344E+03
1.245583695E+01  3.118012695E+03
1.246601608E+01  3.115156982E+03
1.247619521E+01  3.112815918E+03
1.248637434E+01  3.109504883E+03
1.249655347E+01  3.105182617E+03
1.250673260E+01  3.102980957E+03
1.251691173E+01  3.102774658E+03
1.252709086E+01  3.098572998E+03
1.253726999E+01  3.095023926E+03
1.254744912E+01  3.092452393E+03
1.255762825E+01  3.088783203E+03
1.256780738E+01  3.085717529E+03
1.257798651E+01  3.082858154E+03
1.258816565E+01  3.078241699E+03
1.259834478E+01  3.075278809E+03
1.260852391E+01  3.073187500E+03
1.261870304E+01  3.072227051E+03
1.262888217E+01  3.071958252E+03
1.263906130E+01  3.068005859E+03
1.264924043E+01  3.063856445E+03
1.265941956E+01  3.058898438E+03
1.266959869E+01  3.056011719E+03
1.267977782E+01  3.054439453E+03
1.268995695E+01  3.050756104E+03
1.270013608E+01  3.045947510E+03
1.271031521E+01  3.044123291E+03
1.272049434E+01  3.042406982E+03
1.273067347E+01  3.041155029E+03
1.274085260E+01  3.038579102E+03
1.275103173E+01  3.033499756E+03
1.276121087E+01  3.027337891E+03
1.277139000E+01  3.023791260E+03
1.278156913E+01  3.020632812E+03
1.279174826E+01  3.019111328E+03
1.280192739E+01  3.016687500E+03
1.281210652E+01  3.014001953E+03
1.282228565E+01  3.010474365E+03
1.283246478E+01  3.005634033E+03
1.284264391E+01  2.999769287E+03
1.285282304E+01  2.996193115E+03
1.286300217E+01  2.993705811E+03
1.287318130E+01  2.991581299E+03
1.288336043E+01  2.991132324E+03
1.289353956E+01  2.991831299E+03
1.290371869E+01  2.989236572E+03
1.291389782E+01  2.987874756E+03
1.292407696E+01  2.986564209E+03
1.293425609E+01  2.983432861E+03
1.294443522E+01  2.979188232E+03
1.295461435E+01  2.975527588E+03
1.296479348E+01  2.972878662E+03
1.297497261E+01  2.970241943E+03
1.298515174E+01  2.967775146E+03
1.299533087E+01  2.962797852E+03
1.300551000E+01  2.956306885E+03
1.301568913E+01  2.951871826E+03
1.302586826E+01  2.949093018E+03
1.303604739E+01  2.947541260E+03
1.304622652E+01  2.944426025E+03
1.305640565E+01  2.938027588E+03
1.306658478E+01  2.933401367E+03
1.307676391E+01  2.928773193E+03
1.308694305E+01  2.926098877E+03
1.309712218E+01  2.926192383E+03
1.310730131E+01  2.927820068E+03
1.311748044E+01  2.925637207E+03
1.312765957E+01  2.921746338E+03
1.313783870E+01  2.915231445E+03
1.314801783E+01  2.911819824E+03
1.315819696E+01  2.910551270E+03
1.316837609E+01  2.910152344E+03
1.317855522E+01  2.909471680E+03
1.318873435E+01  2.905883789E+03
1.319891348E+01  2.902241211E+03
1.320909261E+01  2.896614014E+03
1.321927174E+01  2.893247070E+03
1.322945087E+01  2.889789307E+03
1.323963000E+01  2.886006104E+03
1.324980914E+01  2.882121582E+03
1.325998827E+01  2.881219727E+03
1.327016740E+01  2.878398926E+03
1.328034653E+01  2.874152344E+03
1.329052566E+01  2.870531982E+03
1.330070479E+01  2.869810059E+03
1.331088392E+01  2.868242920E+03
1.332106305E+01  2.865818848E+03
1.333124218E+01  2.862537598E+03
1.334142131E+01  2.860309326E+03
1.335160044E+01  2.856070557E+03
1.336177957E+01  2.853156494E+03
1.337195870E+01  2.849764648E+03
1.338213783E+01  2.847733398E+03
1.339231696E+01  2.845240723E+03
1.340249609E+01  2.842982910E+03
1.341267523E+01  2.838430420E+03
1.342285436E+01  2.836597168E+03
1.343303349E+01  2.836502930E+03
1.344321262E+01  2.833138916E+03
1.345339175E+01  2.828047363E+03
1.346357088E+01  2.825866455E+03
1.347375001E+01  2.825870117E+03
1.348392914E+01  2.823474365E+03
1.349410827E+01  2.820977295E+03
1.350428740E+01  2.818528809E+03
1.351446653E+01  2.813737305E+03
1.352464566E+01  2.806916504E+03
1.353482479E+01  2.802871338E+03
1.354500392E+01  2.800889160E+03
1.355518305E+01  2.801152588E+03
1.356536218E+01  2.800633545E+03
1.357554132E+01  2.798409912E+03
1.358572045E+01  2.795117920E+03
1.359589958E+01  2.791513916E+03
1.360607871E+01  2.791793945E+03
1.361625784E+01  2.791163818E+03
1.362643697E+01  2.787405029E+03
1.363661610E+01  2.781360840E+03
1.364679523E+01  2.777532227E+03
1.365697436E+01  2.775546631E+03
1.366715349E+01  2.773308838E+03
1.367733262E+01  2.770948730E+03
1.368751175E+01  2.769669434E+03
1.369769088E+01  2.768655273E+03
1.370787001E+01  2.767344971E+03
1.371804914E+01  2.764496094E+03
1.372822827E+01  2.760442871E+03
1.373840741E+01  2.756593262E+03
1.374858654E+01  2.753629395E+03
1.375876567E+01  2.750917725E+03
1.376894480E+01  2.748685303E+03
1.377912393E+01  2.747970215E+03
1.378930306E+01  2.745783936E+03
1.379948219E+01  2.741459229E+03
1.380966132E+01  2.735880615E+03
1.381984045E+01  2.732570801E+03
1.383001958E+01  2.730940186E+03
1.384019871E+01  2.730229980E+03
1.385037784E+01  2.729359619E+03
1.386055697E+01  2.726873779E+03
1.387073610E+01  2.725118652E+03
1.388091523E+01  2.725156006E+03
1.389109436E+01  2.724592773E+03
1.390127349E+01  2.722993896E+03
1.391145263E+01  2.721043457E+03
1.392163176E+01  2.719226074E+03
1.393181089E+01  2.715208496E+03
1.394199002E+01  2.711199951E+03
1.395216915E+01  2.706731689E+03
1.396234828E+01  2.703404053E+03
1.397252741E+01  2.703387451E+03
1.398270654E+01  2.703199707E+03
1.399288567E+01  2.699779541E+03
1.400306480E+01  2.695528320E+03
1.401324393E+01  2.693403320E+03
1.402342306E+01  2.691931396E+03
1.403360219E+01  2.690250000E+03
1.404378132E+01  2.689140381E+03
1.405396045E+01  2.688126953E+03
1.406413958E+01  2.686472412E+03
1.407431872E+01  2.685328857E+03
1.408449785E+01  2.682254150E+03
1.409467698E+01  2.678062744E+03
1.410485611E+01  2.676013672E+03
1.411503524E+01  2.675884766E+03
1.412521437E+01  2.673882568E+03
1.413539350E+01  2.671470459E+03
1.414557263E+01  2.670042236E+03
1.415575176E+01  2.669052490E+03
1.416593089E+01  2.667548584E+03
1.417611002E+01  2.664817871E+03
1.418628915E+01  2.661967529E+03
1.419646828E+01  2.658085693E+03
1.420664741E+01  2.653906250E+03
1.421682654E+01  2.650796387E+03
1.422700567E+01  2.648802979E+03
1.423718481E+01  2.646643799E+03
1.424736394E+01  2.646173828E+03
1.425754307E+01  2.647254150E+03
1.426772220E+01  2.645512451E+03
1.427790133E+01  2.642756348E+03
1.428808046E+01  2.641807129E+03
1.429825959E+01  2.640320801E+03
1.430843872E+01  2.636639648E+03
1.431861785E+01  2.632661133E+03
1.432879698E+01  2.629846924E+03
1.433897611E+01  2.629216064E+03
1.434915524E+01  2.629571045E+03
1.435933437E+01  2.628052246E+03
1.436951350E+01  2.626466797E+03
1.437969263E+01  2.621828613E+03
1.438987176E+01  2.618765381E+03
1.440005090E+01  2.615417725E+03
1.441023003E+01  2.613031250E+03
1.442040916E+01  2.613634277E+03
1.443058829E+01  2.615657959E+03
1.444076742E+01  2.614811523E+03
1.445094655E+01  2.612704346E+03
1.446112568E+01  2.611585449E+03
1.447130481E+01  2.608629883E+03
1.448148394E+01  2.605322998E+03
1.449166307E+01  2.601128662E+03
1.450184220E+01  2.600123535E+03
1.451202133E+01  2.598208984E+03
1.452220046E+01  2.597051270E+03
1.453237959E+01  2.595100098E+03
1.454255872E+01  2.592395508E+03
1.455273785E+01  2.589363037E+03
1.456291699E+01  2.589021240E+03
1.457309612E+01  2.589147705E+03
1.458327525E+01  2.588298584E+03
1.459345438E+01  2.586479980E+03
1.460363351E+01  2.584596191E+03
1.461381264E+01  2.581573242E+03
1.462399177E+01  2.578938965E+03
1.463417090E+01  2.576245361E+03
1.464435003E+01  2.574775879E+03
1.465452916E+01  2.574947266E+03
1.466470829E+01  2.572384521E+03
1.467488742E+01  2.568556641E+03
1.468506655E+01  2.565908691E+03
1.469524568E+01  2.565497314E+03
1.470542481E+01  2.564521484E+03
1.471560394E+01  2.561203369E+03
1.472578308E+01  2.557907227E+03
1.473596221E+01  2.557010986E+03
1.474614134E+01  2.555244385E+03
1.475632047E+01  2.552703857E+03
1.476649960E+01  2.552833740E+03
1.477667873E+01  2.552920410E+03
1.478685786E+01  2.550456055E+03
1.479703699E+01  2.549407471E+03
1.480721612E+01  2.548186523E+03
1.481739525E+01  2.546082031E+03
1.482757438E+01  2.544774902E+03
1.483775351E+01  2.545026367E+03
1.484793264E+01  2.546732910E+03
1.485811177E+01  2.545388184E+03
1.486829090E+01  2.541119141E+03
1.487847003E+01  2.538902100E+03
1.488864916E+01  2.539212402E+03
1.489882830E+01  2.537999268E+03
1.490900743E+01  2.535551025E+03
1.491918656E+01  2.532876709E+03
1.492936569E+01  2.529585938E+03
1.493954482E+01  2.525861572E+03
1.494972395E+01  2.523023193E+03
1.495990308E+01  2.521786377E+03
1.497008221E+01  2.522623047E+03
1.498026134E+01  2.520599609E+03
1.499044047E+01  2.519543457E+03
1.500061960E+01  2.520692627E+03
1.501079873E+01  2.521468994E+03
1.502097786E+01  2.517838623E+03
1.503115699E+01  2.514295410E+03
1.504133612E+01  2.515897217E+03
1.505151525E+01  2.515085938E+03
1.506169439E+01  2.511919922E+03
1.507187352E+01  2.509450928E+03
1.508205265E+01  2.508817383E+03
1.509223178E+01  2.508936523E+03
1.510241091E+01  2.508228516E+03
1.511259004E+01  2.507028564E+03
1.512276917E+01  2.505345947E+03
1.513294830E+01  2.503142578E+03
1.514312743E+01  2.501575439E+03
1.515330656E+01  2.499084473E+03
1.516348569E+01  2.496515625E+03
1.517366482E+01  2.493350830E+03
1.518384395E+01  2.489568604E+03
1.519402308E+01  2.486823486E+03
1.520420221E+01  2.485791016E+03
1.521438134E+01  2.484646729E+03
1.522456048E+01  2.485496582E+03
1.523473961E+01  2.487674805E+03
1.524491874E+01  2.486210205E+03
1.525509787E+01  2.482994629E+03
1.526527700E+01  2.479178467E+03
1.527545613E+01  2.477139160E+03
1.528563526E+01  2.475317627E+03
1.529581439E+01  2.473847656E+03
1.530599352E+01  2.473293213E+03
1.531617265E+01  2.474255859E+03
1.532635178E+01  2.473716064E+03
1.533653091E+01  2.470225342E+03
1.534671004E+01  2.466409180E+03
1.535688917E+01  2.464260254E+03
1.536706830E+01  2.465714355E+03
1.537724743E+01  2.468050293E+03
1.538742657E+01  2.468956787E+03
1.539760570E+01  2.466786621E+03
1.540778483E+01  2.464764404E+03
1.541796396E+01  2.460078857E+03
1.542814309E+01  2.455608398E+03
1.543832222E+01  2.454816162E+03
1.544850135E+01  2.454626221E+03
1.545868048E+01  2.453516357E+03
1.546885961E+01  2.451833984E+03
1.547903874E+01  2.450401123E+03
1.548921787E+01  2.450763916E+03
1.549939700E+01  2.450743408E+03
1.550957613E+01  2.447254639E+03
1.551975526E+01  2.442776611E+03
1.552993439E+01  2.439279541E+03
1.554011352E+01  2.438644531E+03
1.555029266E+01  2.437992920E+03
1.556047179E+01  2.439803955E+03
1.557065092E+01  2.442313232E+03
1.558083005E+01  2.442295654E+03
1.559100918E+01  2.438222900E+03
1.560118831E+01  2.436221436E+03
1.561136744E+01  2.436467773E+03
1.562154657E+01  2.435104492E+03
1.563172570E+01  2.433259033E+03
1.564190483E+01  2.432271973E+03
1.565208396E+01  2.429797607E+03
1.566226309E+01  2.428216553E+03
1.567244222E+01  2.428923340E+03
1.568262135E+01  2.429628906E+03
1.569280048E+01  2.428822266E+03
1.570297961E+01  2.426736084E+03
1.571315875E+01  2.426514893E+03
1.572333788E+01  2.424486328E+03
1.573351701E+01  2.422523926E+03
1.574369614E+01  2.422101807E+03
1.575387527E+01  2.421462402E+03
1.576405440E+01  2.421234619E+03
1.577423353E+01  2.421572998E+03
1.578441266E+01  2.419134277E+03
1.579459179E+01  2.415409424E+03
1.580477092E+01  2.411658447E+03
1.581495005E+01  2.408734863E+03
1.582512918E+01  2.406232666E+03
1.583530831E+01  2.404108154E+03
1.584548744E+01  2.405500000E+03
1.585566657E+01  2.406391846E+03
1.586584570E+01  2.406597656E+03
1.587602483E+01  2.406249756E+03
1.588620397E+01  2.404668701E+03
1.589638310E+01  2.401618164E+03
1.590656223E+01  2.400458008E+03
1.591674136E+01  2.397923096E+03
1.592692049E+01  2.395216797E+03
1.593709962E+01  2.395212646E+03
1.594727875E+01  2.395340820E+03
1.595745788E+01  2.392703613E+03
1.596763701E+01  2.390177979E+03
1.597781614E+01  2.389118164E+03
1.598799527E+01  2.387823486E+03
1.599817440E+01  2.386221191E+03
1.600835353E+01  2.384761230E+03
1.601853266E+01  2.384853027E+03
1.602871179E+01  2.381861084E+03
1.603889092E+01  2.381336182E+03
1.604907006E+01  2.380389893E+03
1.605924919E+01  2.376059570E+03
1.606942832E+01  2.373166992E+03
1.607960745E+01  2.373659668E+03
1.608978658E+01  2.374469971E+03
1.609996571E+01  2.373267822E+03
1.611014484E+01  2.372989746E+03
1.612032397E+01  2.371407715E+03
1.613050310E+01  2.369313965E+03
1.614068223E+01  2.366679932E+03
1.615086136E+01  2.363622070E+03
1.616104049E+01  2.361060547E+03
1.617121962E+01  2.360036377E+03
1.618139875E+01  2.360111816E+03
1.619157788E+01  2.361014648E+03
1.620175701E+01  2.359630371E+03
1.621193615E+01  2.359387695E+03
1.622211528E+01  2.360614502E+03
1.623229441E+01  2.360988525E+03
1.624247354E+01  2.361019043E+03
1.625265267E+01  2.360433350E+03
1.626283180E+01  2.359226318E+03
1.627301093E+01  2.355397705E+03
1.628319006E+01  2.350732910E+03
1.629336919E+01  2.346932617E+03
1.630354832E+01  2.346661621E+03
1.631372745E+01  2.347291016E+03
1.632390658E+01  2.347773193E+03
1.633408571E+01  2.347070068E+03
1.634426484E+01  2.345447266E+03
1.635444397E+01  2.342418945E+03
1.636462310E+01  2.342782471E+03
1.637480224E+01  2.343890625E+03
1.638498137E+01  2.342570312E+03
1.639516050E+01  2.340644287E+03
1.640533963E+01  2.338051758E+03
1.641551876E+01  2.337253418E+03
1.642569789E+01  2.335317383E+03
1.643587702E+01  2.334098389E+03
1.644605615E+01  2.331121094E+03
1.645623528E+01  2.326881348E+03
1.646641441E+01  2.326360596E+03
1.647659354E+01  2.329715088E+03
1.648677267E+01  2.329965576E+03
1.649695180E+01  2.325971436E+03
1.650713093E+01  2.323416992E+03
1.651731006E+01  2.323427979E+03
1.652748919E+01  2.323805420E+03
1.653766833E+01  2.322290039E+03
1.654784746E+01  2.320372070E+03
1.655802659E+01  2.316728027E+03
1.656820572E+01  2.315255127E+03
1.657838485E+01  2.315427002E+03
1.658856398E+01  2.315263672E+03
1.659874311E+01  2.313695801E+03
1.660892224E+01  2.312636719E+03
1.661910137E+01  2.312037354E+03
1.662928050E+01  2.310726807E+03
1.663945963E+01  2.310288330E+03
1.664963876E+01  2.308551758E+03
1.665981789E+01  2.306643311E+03
1.666999702E+01  2.305331055E+03
1.668017615E+01  2.304003174E+03
1.669035528E+01  2.299106201E+03
1.670053442E+01  2.295541504E+03
1.671071355E+01  2.296303467E+03
1.672089268E+01  2.297378906E+03
1.673107181E+01  2.296183105E+03
1.674125094E+01  2.295654541E+03
1.675143007E+01  2.294788086E+03
1.676160920E+01  2.294131836E+03
1.677178833E+01  2.293488037E+03
1.678196746E+01  2.293722656E+03
1.679214659E+01  2.291637451E+03
1.680232572E+01  2.288468506E+03
1.681250485E+01  2.287869385E+03
1.682268398E+01  2.286933350E+03
1.683286311E+01  2.287141113E+03
1.684304224E+01  2.286731201E+03
1.685322137E+01  2.286596680E+03
1.686340050E+01  2.284741943E+03
1.687357964E+01  2.281704346E+03
1.688375877E+01  2.279373779E+03
1.689393790E+01  2.279823242E+03
1.690411703E+01  2.279234619E+03
1.691429616E+01  2.278019531E+03
1.692447529E+01  2.276053711E+03
1.693465442E+01  2.275222412E+03
1.694483355E+01  2.277308350E+03
1.695501268E+01  2.277950195E+03
1.696519181E+01  2.275836182E+03
1.697537094E+01  2.271780518E+03
1.698555007E+01  2.267914307E+03
1.699572920E+01  2.265618408E+03
1.700590833E+01  2.265067871E+03
1.701608746E+01  2.262676758E+03
1.702626659E+01  2.262200439E+03
1.703644573E+01  2.263395264E+03
1.704662486E+01  2.265393066E+03
1.705680399E+01  2.266112305E+03
1.706698312E+01  2.264119629E+03
1.707716225E+01  2.262874512E+03
1.708734138E+01  2.260432617E+03
1.709752051E+01  2.259689209E+03
1.710769964E+01  2.257984863E+03
1.711787877E+01  2.255296631E+03
1.712805790E+01  2.253277344E+03
1.713823703E+01  2.253260254E+03
1.714841616E+01  2.250401611E+03
1.715859529E+01  2.248246582E+03
1.716877442E+01  2.248240234E+03
1.717895355E+01  2.248954346E+03
1.718913268E+01  2.247974365E+03
1.719931182E+01  2.246978027E+03
1.720949095E+01  2.246967773E+03
1.721967008E+01  2.245990234E+03
1.722984921E+01  2.245483398E+03
1.724002834E+01  2.244263428E+03
1.725020747E+01  2.242617188E+03
1.726038660E+01  2.240048096E+03
1.727056573E+01  2.238692139E+03
1.728074486E+01  2.238594482E+03
1.729092399E+01  2.236845459E+03
1.730110312E+01  2.235344727E+03
1.731128225E+01  2.234154297E+03
1.732146138E+01  2.231829834E+03
1.733164051E+01  2.229658936E+03
1.734181964E+01  2.229189697E+03
1.735199877E+01  2.226513428E+03
1.736217791E+01  2.225018311E+03
1.737235704E+01  2.226183105E+03
1.738253617E+01  2.227545166E+03
1.739271530E+01  2.225915771E+03
1.740289443E+01  2.222482178E+03
1.741307356E+01  2.220840576E+03
1.742325269E+01  2.220553223E+03
1.743343182E+01  2.221914551E+03
1.744361095E+01  2.222935791E+03
1.745379008E+01  2.223165039E+03
1.746396921E+01  2.221505859E+03
1.747414834E+01  2.220462891E+03
1.748432747E+01  2.219187500E+03
1.749450660E+01  2.217411621E+03
1.750468573E+01  2.216595703E+03
1.751486486E+01  2.215435303E+03
1.752504400E+01  2.213262695E+03
1.753522313E+01  2.212154053E+03
1.754540226E+01  2.211487305E+03
1.755558139E+01  2.209826416E+03
1.756576052E+01  2.209254639E+03
1.757593965E+01  2.209367188E+03
1.758611878E+01  2.210777588E+03
1.759629791E+01  2.210971191E+03
1.760647704E+01  2.211666992E+03
1.761665617E+01  2.210250000E+03
1.762683530E+01  2.209247559E+03
1.763701443E+01  2.209549805E+03
1.764719356E+01  2.207443115E+03
1.765737269E+01  2.204000977E+03
1.766755182E+01  2.202071777E+03
1.767773095E+01  2.200094727E+03
1.768791009E+01  2.197783936E+03
1.769808922E+01  2.197994629E+03
1.770826835E+01  2.196085693E+03
1.771844748E+01  2.194106201E+03
1.772862661E+01  2.191971191E+03
1.773880574E+01  2.190951416E+03
1.774898487E+01  2.190121338E+03
1.775916400E+01  2.189122314E+03
1.776934313E+01  2.189036865E+03
1.777952226E+01  2.189324219E+03
1.778970139E+01  2.190606689E+03
1.779988052E+01  2.189014893E+03
1.781005965E+01  2.185479980E+03
1.782023878E+01  2.182960449E+03
1.783041791E+01  2.182704590E+03
1.784059704E+01  2.180805420E+03
1.785077618E+01  2.180815674E+03
1.786095531E+01  2.181543945E+03
1.787113444E+01  2.183414551E+03
1.788131357E+01  2.183061768E+03
1.789149270E+01  2.181418701E+03
1.790167183E+01  2.180925049E+03
1.791185096E+01  2.178194092E+03
1.792203009E+01  2.176179932E+03
1.793220922E+01  2.175040039E+03
1.794238835E+01  2.174652588E+03
1.795256748E+01  2.175098389E+03
1.796274661E+01  2.176039551E+03
1.797292574E+01  2.175657227E+03
1.798310487E+01  2.174930908E+03
1.799328400E+01  2.175486084E+03
1.800346313E+01  2.175611084E+03
1.801364226E+01  2.174045654E+03
1.802382140E+01  2.175126465E+03
1.803400053E+01  2.178766357E+03
1.804417966E+01  2.180456543E+03
1.805435879E+01  2.181993408E+03
1.806453792E+01  2.183991455E+03
1.807471705E+01  2.186078857E+03
1.808489618E+01  2.189191406E+03
1.809507531E+01  2.192314941E+03
1.810525444E+01  2.193391113E+03
1.811543357E+01  2.195016113E+03
1.812561270E+01  2.195562256E+03
1.813579183E+01  2.192403320E+03
1.814597096E+01  2.188262451E+03
1.815615009E+01  2.183613525E+03
1.816632922E+01  2.178721680E+03
1.817650835E+01  2.174025146E+03
1.818668749E+01  2.168162842E+03
1.819686662E+01  2.163888184E+03
1.820704575E+01  2.160898682E+03
1.821722488E+01  2.157300293E+03
1.822740401E+01  2.154039795E+03
1.823758314E+01  2.151569336E+03
1.824776227E+01  2.148149170E+03
1.825794140E+01  2.146848877E+03
1.826812053E+01  2.146130859E+03
1.827829966E+01  2.145924805E+03
1.828847879E+01  2.145854004E+03
1.829865792E+01  2.144320557E+03
1.830883705E+01  2.143350342E+03
1.831901618E+01  2.143785156E+03
1.832919531E+01  2.142173096E+03
1.833937444E+01  2.139819092E+03
1.834955358E+01  2.138104248E+03
1.835973271E+01  2.134876709E+03
1.836991184E+01  2.133702393E+03
1.838009097E+01  2.132399414E+03
1.839027010E+01  2.130756104E+03
1.840044923E+01  2.128892090E+03
1.841062836E+01  2.129492188E+03
1.842080749E+01  2.131541992E+03
1.843098662E+01  2.131484375E+03
1.844116575E+01  2.130459473E+03
1.845134488E+01  2.129188721E+03
1.846152401E+01  2.128829590E+03
1.847170314E+01  2.127013916E+03
1.848188227E+01  2.125667480E+03
1.849206140E+01  2.124984619E+03
1.850224053E+01  2.124041748E+03
1.851241967E+01  2.122552246E+03
1.852259880E+01  2.120289307E+03
1.853277793E+01  2.118965820E+03
1.854295706E+01  2.118982178E+03
1.855313619E+01  2.120432617E+03
1.856331532E+01  2.118681396E+03
1.857349445E+01  2.115294678E+03
1.858367358E+01  2.113956787E+03
1.859385271E+01  2.114521973E+03
1.860403184E+01  2.114814453E+03
1.861421097E+01  2.116005127E+03
1.862439010E+01  2.115650879E+03
1.863456923E+01  2.113529785E+03
1.864474836E+01  2.112068604E+03
1.865492749E+01  2.110126465E+03
1.866510662E+01  2.107498291E+03
1.867528576E+01  2.108160400E+03
1.868546489E+01  2.110610840E+03
1.869564402E+01  2.108355469E+03
1.870582315E+01  2.106670166E+03
1.871600228E+01  2.106697998E+03
1.872618141E+01  2.104138184E+03
1.873636054E+01  2.101025879E+03
1.874653967E+01  2.100909180E+03
1.875671880E+01  2.102106445E+03
1.876689793E+01  2.101609863E+03
1.877707706E+01  2.103735596E+03
1.878725619E+01  2.104449219E+03
1.879743532E+01  2.104050293E+03
1.880761445E+01  2.104196045E+03
1.881779358E+01  2.105651611E+03
1.882797271E+01  2.106477051E+03
1.883815185E+01  2.106832520E+03
1.884833098E+01  2.108567871E+03
1.885851011E+01  2.108624268E+03
1.886868924E+01  2.108359375E+03
1.887886837E+01  2.110373291E+03
1.888904750E+01  2.112241699E+03
1.889922663E+01  2.113909912E+03
1.890940576E+01  2.115711426E+03
1.891958489E+01  2.116165771E+03
1.892976402E+01  2.117836670E+03
1.893994315E+01  2.121274170E+03
1.895012228E+01  2.122312012E+03
1.896030141E+01  2.122011230E+03
1.897048054E+01  2.121960693E+03
1.898065967E+01  2.120245850E+03
1.899083880E+01  2.116385498E+03
1.900101793E+01  2.114254395E+03
1.901119707E+01  2.112121826E+03
1.902137620E+01  2.109849121E+03
1.903155533E+01  2.109429199E+03
1.904173446E+01  2.108797607E+03
1.905191359E+01  2.106295410E+03
1.906209272E+01  2.104010498E+03
1.907227185E+01  2.104969727E+03
1.908245098E+01  2.103693604E+03
1.909263011E+01  2.102055420E+03
1.910280924E+01  2.100394287E+03
1.911298837E+01  2.096952148E+03
1.912316750E+01  2.094882568E+03
1.913334663E+01  2.093779053E+03
1.914352576E+01  2.093100830E+03
1.915370489E+01  2.092590820E+03
1.916388402E+01  2.092947998E+03
1.917406316E+01  2.092887695E+03
1.918424229E+01  2.090876221E+03
1.919442142E+01  2.086795410E+03
1.920460055E+01  2.082960449E+03
1.921477968E+01  2.078573730E+03
1.922495881E+01  2.077150391E+03
1.923513794E+01  2.078628906E+03
1.924531707E+01  2.076055420E+03
1.925549620E+01  2.073773438E+03
1.926567533E+01  2.072311035E+03
1.927585446E+01  2.071572998E+03
1.928603359E+01  2.070395264E+03
1.929621272E+01  2.069393799E+03
1.930639185E+01  2.068734863E+03
1.931657098E+01  2.067153076E+03
1.932675011E+01  2.065327148E+03
1.933692925E+01  2.062176025E+03
1.934710838E+01  2.061019775E+03
1.935728751E+01  2.061196289E+03
1.936746664E+01  2.060232666E+03
1.937764577E+01  2.057160645E+03
1.938782490E+01  2.056637207E+03
1.939800403E+01  2.057296387E+03
1.940818316E+01  2.057637695E+03
1.941836229E+01  2.059619629E+03
1.942854142E+01  2.059152344E+03
1.943872055E+01  2.056175293E+03
1.944889968E+01  2.054648926E+03
1.945907881E+01  2.054022949E+03
1.946925794E+01  2.052270996E+03
1.947943707E+01  2.050861572E+03
1.948961620E+01  2.049551514E+03
1.949979534E+01  2.048823975E+03
1.950997447E+01  2.049258545E+03
1.952015360E+01  2.049646240E+03
1.953033273E+01  2.048557861E+03
1.954051186E+01  2.047961670E+03
1.955069099E+01  2.048930176E+03
1.956087012E+01  2.048714355E+03
1.957104925E+01  2.049396973E+03
1.958122838E+01  2.051392578E+03
1.959140751E+01  2.051694580E+03
1.960158664E+01  2.050228516E+03
1.961176577E+01  2.049487793E+03
1.962194490E+01  2.051825195E+03
1.963212403E+01  2.053921875E+03
1.964230316E+01  2.055598145E+03
1.965248229E+01  2.056888916E+03
1.966266143E+01  2.055929443E+03
1.967284056E+01  2.053031982E+03
1.968301969E+01  2.051503662E+03
1.969319882E+01  2.050107666E+03
1.970337795E+01  2.048827393E+03
1.971355708E+01  2.049097168E+03
1.972373621E+01  2.047293335E+03
1.973391534E+01  2.046152466E+03
1.974409447E+01  2.045945435E+03
1.975427360E+01  2.043905273E+03
1.976445273E+01  2.042207886E+03
1.977463186E+01  2.042387573E+03
1.978481099E+01  2.043479370E+03
1.979499012E+01  2.043423584E+03
1.980516925E+01  2.042882446E+03
1.981534838E+01  2.040653564E+03
1.982552752E+01  2.039358765E+03
1.983570665E+01  2.038669678E+03
1.984588578E+01  2.038995850E+03
1.985606491E+01  2.038404785E+03
1.986624404E+01  2.036136475E+03
1.987642317E+01  2.034754517E+03
1.988660230E+01  2.031416016E+03
1.989678143E+01  2.030596558E+03
1.990696056E+01  2.030563599E+03
1.991713969E+01  2.029575195E+03
1.992731882E+01  2.027134766E+03
1.993749795E+01  2.024320312E+03
1.994767708E+01  2.021802124E+03
1.995785621E+01  2.019417603E+03
1.996803534E+01  2.021206177E+03
1.997821447E+01  2.023395630E+03
1.998839360E+01  2.022271484E+03
1.999857274E+01  2.019838501E+03
2.000875187E+01  2.019738403E+03
2.001893100E+01  2.019348267E+03
2.002911013E+01  2.018930542E+03
2.003928926E+01  2.017883667E+03
2.004946839E+01  2.013808472E+03
2.005964752E+01  2.011833618E+03
2.006982665E+01  2.012465454E+03
2.008000578E+01  2.013092529E+03
2.009018491E+01  2.012917725E+03
2.010036404E+01  2.011882812E+03
2.011054317E+01  2.009428223E+03
2.012072230E+01  2.007045898E+03
2.013090143E+01  2.006540649E+03
2.014108056E+01  2.006285889E+03
2.015125969E+01  2.007184448E+03
2.016143883E+01  2.006396362E+03
2.017161796E+01  2.005091431E+03
2.018179709E+01  2.004670532E+03
2.019197622E+01  2.004152100E+03
2.020215535E+01  2.002859741E+03
2.021233448E+01  2.001367065E+03
2.022251361E+01  2.000686646E+03
2.023269274E+01  1.998439209E+03
2.024287187E+01  1.995045898E+03
2.025305100E+01  1.993521851E+03
2.026323013E+01  1.993914917E+03
2.027340926E+01  1.992913940E+03
2.028358839E+01  1.990820312E+03
2.029376752E+01  1.991703735E+03
2.030394665E+01  1.991817261E+03
2.031412578E+01  1.990891235E+03
2.032430492E+01  1.989498779E+03
2.033448405E+01  1.987014038E+03
2.034466318E+01  1.986447876E+03
2.035484231E+01  1.987949097E+03
2.036502144E+01  1.986937256E+03
2.037520057E+01  1.984867065E+03
2.038537970E+01  1.984978394E+03
2.039555883E+01  1.984107422E+03
2.040573796E+01  1.981922241E+03
2.041591709E+01  1.980645386E+03
2.042609622E+01  1.980832275E+03
2.043627535E+01  1.980999146E+03
2.044645448E+01  1.980361084E+03
2.045663361E+01  1.978494263E+03
2.046681274E+01  1.976670410E+03
2.047699187E+01  1.977503418E+03
2.048717101E+01  1.978310059E+03
2.049735014E+01  1.978160889E+03
2.050752927E+01  1.977877197E+03
2.051770840E+01  1.977787231E+03
2.052788753E+01  1.977105225E+03
2.053806666E+01  1.978092163E+03
2.054824579E+01  1.981038452E+03
2.055842492E+01  1.980069580E+03
2.056860405E+01  1.978344482E+03
2.057878318E+01  1.978149292E+03
2.058896231E+01  1.979632446E+03
2.059914144E+01  1.981789795E+03
2.060932057E+01  1.983284180E+03
2.061949970E+01  1.984445801E+03
2.062967883E+01  1.985263550E+03
2.063985796E+01  1.985897827E+03
2.065003710E+01  1.984452759E+03
2.066021623E+01  1.983539673E+03
2.067039536E+01  1.982793579E+03
2.068057449E+01  1.980698975E+03
2.069075362E+01  1.976522827E+03
2.070093275E+01  1.973108154E+03
2.071111188E+01  1.971589844E+03
2.072129101E+01  1.968645630E+03
2.073147014E+01  1.967803589E+03
2.074164927E+01  1.965096436E+03
2.075182840E+01  1.961339844E+03
2.076200753E+01  1.960026611E+03
2.077218666E+01  1.960369751E+03
2.078236579E+01  1.960090820E+03
2.079254492E+01  1.959846680E+03
2.080272405E+01  1.960625732E+03
2.081290319E+01  1.960211914E+03
2.082308232E+01  1.959463623E+03
2.083326145E+01  1.958504761E+03
2.084344058E+01  1.956200195E+03
2.085361971E+01  1.953978760E+03
2.086379884E+01  1.952857178E+03
2.087397797E+01  1.952594604E+03
2.088415710E+01  1.952671753E+03
2.089433623E+01  1.953506714E+03
2.090451536E+01  1.952526855E+03
2.091469449E+01  1.951602661E+03
2.092487362E+01  1.951611084E+03
2.093505275E+01  1.949551514E+03
2.094523188E+01  1.948078003E+03
2.095541101E+01  1.947913086E+03
2.096559014E+01  1.947516479E+03
2.097576927E+01  1.946779419E+03
2.098594841E+01  1.947178223E+03
2.099612754E+01  1.947321411E+03
2.100630667E+01  1.947434692E+03
2.101648580E+01  1.947213379E+03
2.102666493E+01  1.943714844E+03
2.103684406E+01  1.941625610E+03
2.104702319E+01  1.941079712E+03
2.105720232E+01  1.940513794E+03
2.106738145E+01  1.940607544E+03
2.107756058E+01  1.940546509E+03
2.108773971E+01  1.940821899E+03
2.109791884E+01  1.939111938E+03
2.110809797E+01  1.936812866E+03
2.111827710E+01  1.934629150E+03
2.112845623E+01  1.932656616E+03
2.113863536E+01  1.932340942E+03
2.114881450E+01  1.933118164E+03
2.115899363E+01  1.931639771E+03
2.116917276E+01  1.930131226E+03
2.117935189E+01  1.930501709E+03
2.118953102E+01  1.929129150E+03
2.119971015E+01  1.927915649E+03
2.120988928E+01  1.928183228E+03
2.122006841E+01  1.927975708E+03
2.123024754E+01  1.927482666E+03
2.124042667E+01  1.926412354E+03
2.125060580E+01  1.927216919E+03
2.126078493E+01  1.926869019E+03
2.127096406E+01  1.925680298E+03
2.128114319E+01  1.924732422E+03
2.129132232E+01  1.925125244E+03
2.130150145E+01  1.926641235E+03
2.131168059E+01  1.926180054E+03
2.132185972E+01  1.925003418E+03
2.133203885E+01  1.923789917E+03
2.134221798E+01  1.923538330E+03
2.135239711E+01  1.923014160E+03
2.136257624E+01  1.921893799E+03
2.137275537E+01  1.921676636E+03
2.138293450E+01  1.920196411E+03
2.139311363E+01  1.918691284E+03
2.140329276E+01  1.917523438E+03
2.141347189E+01  1.917329102E+03
2.142365102E+01  1.916968140E+03
2.143383015E+01  1.916451050E+03
2.144400928E+01  1.915933594E+03
2.145418841E+01  1.915956299E+03
2.146436754E+01  1.917181763E+03
2.147454668E+01  1.915848999E+03
2.148472581E+01  1.914718872E+03
2.149490494E+01  1.914722534E+03
2.150508407E+01  1.914002563E+03
2.151526320E+01  1.913544067E+03
2.152544233E+01  1.913276367E+03
2.153562146E+01  1.912093384E+03
2.154580059E+01  1.909640381E+03
2.155597972E+01  1.908869995E+03
2.156615885E+01  1.908269531E+03
2.157633798E+01  1.906513550E+03
2.158651711E+01  1.905614014E+03
2.159669624E+01  1.905255127E+03
2.160687537E+01  1.905031128E+03
2.161705450E+01  1.904147339E+03
2.162723363E+01  1.903252686E+03
2.163741277E+01  1.902411499E+03
2.164759190E+01  1.903231567E+03
2.165777103E+01  1.904234253E+03
2.166795016E+01  1.903807861E+03
2.167812929E+01  1.903172974E+03
2.168830842E+01  1.901798340E+03
2.169848755E+01  1.901363159E+03
2.170866668E+01  1.900787109E+03
2.171884581E+01  1.899716919E+03
2.172902494E+01  1.899566895E+03
2.173920407E+01  1.898451904E+03
2.174938320E+01  1.897250610E+03
2.175956233E+01  1.897851929E+03
2.176974146E+01  1.899835693E+03
2.177992059E+01  1.898041504E+03
2.179009972E+01  1.895996094E+03
2.180027886E+01  1.897253174E+03
2.181045799E+01  1.896900513E+03
2.182063712E+01  1.895365723E+03
2.183081625E+01  1.895615967E+03
2.184099538E+01  1.896938965E+03
2.185117451E+01  1.896499756E+03
2.186135364E+01  1.893859863E+03
2.187153277E+01  1.891821411E+03
2.188171190E+01  1.891211792E+03
2.189189103E+01  1.893053955E+03
2.190207016E+01  1.892154785E+03
2.191224929E+01  1.889706177E+03
2.192242842E+01  1.888562622E+03
2.193260755E+01  1.887950195E+03
2.194278668E+01  1.887355347E+03
2.195296581E+01  1.887339722E+03
2.196314495E+01  1.889333130E+03
2.197332408E+01  1.889761108E+03
2.198350321E+01  1.888341187E+03
2.199368234E+01  1.887796387E+03
2.200386147E+01  1.886764038E+03
2.201404060E+01  1.884797607E+03
2.202421973E+01  1.883890381E+03
2.203439886E+01  1.884051758E+03
2.204457799E+01  1.884323486E+03
2.205475712E+01  1.884620361E+03
2.206493625E+01  1.883675659E+03
2.207511538E+01  1.882900024E+03
2.208529451E+01  1.883988770E+03
2.209547364E+01  1.884037231E+03
2.210565277E+01  1.883106934E+03
2.211583190E+01  1.883289185E+03
2.212601103E+01  1.883250610E+03
2.213619017E+01  1.881472290E+03
2.214636930E+01  1.879758911E+03
2.215654843E+01  1.879193848E+03
2.216672756E+01  1.879181763E+03
2.217690669E+01  1.880163574E+03
2.218708582E+01  1.879875244E+03
2.219726495E+01  1.878429932E+03
2.220744408E+01  1.877066772E+03
2.221762321E+01  1.875792725E+03
2.222780234E+01  1.873759033E+03
2.223798147E+01  1.872991333E+03
2.224816060E+01  1.874412598E+03
2.225833973E+01  1.875239502E+03
2.226851886E+01  1.874569580E+03
2.227869799E+01  1.873136475E+03
2.228887712E+01  1.872559937E+03
2.229905626E+01  1.874195312E+03
2.230923539E+01  1.874753296E+03
2.231941452E+01  1.873872070E+03
2.232959365E+01  1.872978027E+03
2.233977278E+01  1.871921509E+03
2.234995191E+01  1.869737305E+03
2.236013104E+01  1.867329468E+03
2.237031017E+01  1.865570435E+03
2.238048930E+01  1.864244141E+03
2.239066843E+01  1.863767090E+03
2.240084756E+01  1.862726318E+03
2.241102669E+01  1.859826538E+03
2.242120582E+01  1.857788696E+03
2.243138495E+01  1.856110352E+03
2.244156408E+01  1.855311035E+03
2.245174321E+01  1.855620117E+03
2.246192235E+01  1.855130859E+03
2.247210148E+01  1.852662231E+03
2.248228061E+01  1.851808960E+03
2.249245974E+01  1.852853271E+03
2.250263887E+01  1.852154297E+03
2.251281800E+01  1.851811035E+03
2.252299713E+01  1.851307251E+03
2.253317626E+01  1.851296387E+03
2.254335539E+01  1.853048828E+03
2.255353452E+01  1.852538696E+03
2.256371365E+01  1.851061401E+03
2.257389278E+01  1.850879883E+03
2.258407191E+01  1.851862549E+03
2.259425104E+01  1.850487793E+03
2.260443017E+01  1.848588135E+03
2.261460930E+01  1.848311401E+03
2.262478844E+01  1.848141968E+03
2.263496757E+01  1.848804199E+03
2.264514670E+01  1.848157104E+03
2.265532583E+01  1.846872192E+03
2.266550496E+01  1.847398315E+03
2.267568409E+01  1.848212280E+03
2.268586322E+01  1.847637695E+03
2.269604235E+01  1.846747803E+03
2.270622148E+01  1.846803589E+03
2.271640061E+01  1.846873657E+03
2.272657974E+01  1.846267578E+03
2.273675887E+01  1.845939819E+03
2.274693800E+01  1.844974243E+03
2.275711713E+01  1.844605469E+03
2.276729626E+01  1.844851196E+03
2.277747539E+01  1.845373535E+03
2.278765453E+01  1.845739258E+03
2.279783366E+01  1.844980469E+03
2.280801279E+01  1.843825562E+03
2.281819192E+01  1.843995972E+03
2.282837105E+01  1.843631836E+03
2.283855018E+01  1.841855713E+03
2.284872931E+01  1.840333984E+03
2.285890844E+01  1.840922974E+03
2.286908757E+01  1.841535156E+03
2.287926670E+01  1.840296997E+03
2.288944583E+01  1.837895996E+03
2.289962496E+01  1.837192627E+03
2.290980409E+01  1.837522095E+03
2.291998322E+01  1.836621094E+03
2.293016235E+01  1.835512207E+03
2.294034148E+01  1.834667603E+03
2.295052062E+01  1.834289795E+03
2.296069975E+01  1.833276245E+03
2.297087888E+01  1.833199829E+03
2.298105801E+01  1.835526245E+03
2.299123714E+01  1.836765503E+03
2.300141627E+01  1.836452026E+03
2.301159540E+01  1.835669556E+03
2.302177453E+01  1.834431885E+03
2.303195366E+01  1.832756714E+03
2.304213279E+01  1.832387695E+03
2.305231192E+01  1.832482544E+03
2.306249105E+01  1.833135620E+03
2.307267018E+01  1.834196777E+03
2.308284931E+01  1.833278809E+03
2.309302844E+01  1.833306274E+03
2.310320757E+01  1.833748291E+03
2.311338670E+01  1.833158813E+03
2.312356584E+01  1.833999756E+03
2.313374497E+01  1.835342407E+03
2.314392410E+01  1.833915649E+03
2.315410323E+01  1.830683350E+03
2.316428236E+01  1.828107056E+03
2.317446149E+01  1.825974365E+03
2.318464062E+01  1.826974243E+03
2.319481975E+01  1.829464478E+03
2.320499888E+01  1.829649292E+03
2.321517801E+01  1.828839478E+03
2.322535714E+01  1.828903076E+03
2.323553627E+01  1.827670898E+03
2.324571540E+01  1.825895020E+03
2.325589453E+01  1.825144775E+03
2.326607366E+01  1.824857788E+03
2.327625279E+01  1.823731567E+03
2.328643193E+01  1.822929565E+03
2.329661106E+01  1.824036743E+03
2.330679019E+01  1.826731689E+03
2.331696932E+01  1.828961792E+03
2.332714845E+01  1.830002075E+03
2.333732758E+01  1.830593140E+03
2.334750671E+01  1.832380859E+03
2.335768584E+01  1.833867554E+03
2.336786497E+01  1.836294922E+03
2.337804410E+01  1.839008667E+03
2.338822323E+01  1.841829346E+03
2.339840236E+01  1.844805420E+03
2.340858149E+01  1.848437256E+03
2.341876062E+01  1.852785645E+03
2.342893975E+01  1.857206909E+03
2.343911888E+01  1.861848999E+03
2.344929802E+01  1.864870239E+03
2.345947715E+01  1.865752808E+03
2.346965628E+01  1.866283569E+03
2.347983541E+01  1.864833374E+03
2.349001454E+01  1.862666382E+03
2.350019367E+01  1.860370605E+03
2.351037280E+01  1.858904663E+03
2.352055193E+01  1.857957520E+03
2.353073106E+01  1.857315186E+03
2.354091019E+01  1.856033203E+03
2.355108932E+01  1.852808838E+03
2.356126845E+01  1.849151611E+03
2.357144758E+01  1.844854736E+03
2.358162671E+01  1.842215698E+03
2.359180584E+01  1.841423340E+03
2.360198497E+01  1.839077026E+03
2.361216411E+01  1.837781494E+03
2.362234324E+01  1.836800415E+03
2.363252237E+01  1.835228027E+03
2.364270150E+01  1.834386719E+03
2.365288063E+01  1.832275635E+03
2.366305976E+01  1.830136353E+03
2.367323889E+01  1.828309204E+03
2.368341802E+01  1.827465942E+03
2.369359715E+01  1.825756104E+03
2.370377628E+01  1.823445190E+03
2.371395541E+01  1.820961060E+03
2.372413454E+01  1.816966431E+03
2.373431367E+01  1.813692993E+03
2.374449280E+01  1.811323853E+03
2.375467193E+01  1.807473145E+03
2.376485106E+01  1.803759155E+03
2.377503020E+01  1.801764038E+03
2.378520933E+01  1.801168945E+03
2.379538846E+01  1.801279907E+03
2.380556759E+01  1.801512085E+03
2.381574672E+01  1.800316284E+03
2.382592585E+01  1.798859253E+03
2.383610498E+01  1.797627197E+03
2.384628411E+01  1.796805542E+03
2.385646324E+01  1.796480713E+03
2.386664237E+01  1.797555786E+03
2.387682150E+01  1.797133179E+03
2.388700063E+01  1.795241333E+03
2.389717976E+01  1.793973511E+03
2.390735889E+01  1.793249268E+03
2.391753802E+01  1.792989746E+03
2.392771715E+01  1.792575928E+03
2.393789629E+01  1.791669922E+03
2.394807542E+01  1.790043701E+03
2.395825455E+01  1.788846313E+03
2.396843368E+01  1.787336060E+03
2.397861281E+01  1.786626587E+03
2.398879194E+01  1.786502075E+03
2.399897107E+01  1.784438843E+03
2.400915020E+01  1.783148315E+03
2.401932933E+01  1.782918213E+03
2.402950846E+01  1.783796997E+03
2.403968759E+01  1.785914551E+03
2.404986672E+01  1.785173828E+03
2.406004585E+01  1.783787598E+03
2.407022498E+01  1.783364136E+03
2.408040411E+01  1.781432495E+03
2.409058324E+01  1.779683105E+03
2.410076237E+01  1.777782959E+03
2.411094151E+01  1.776506470E+03
2.412112064E+01  1.775769897E+03
2.413129977E+01  1.775328613E+03
2.414147890E+01  1.776283081E+03
2.415165803E+01  1.776173950E+03
2.416183716E+01  1.775988037E+03
2.417201629E+01  1.774607300E+03
2.418219542E+01  1.773563599E+03
2.419237455E+01  1.773287109E+03
2.420255368E+01  1.771077881E+03
2.421273281E+01  1.770252563E+03
2.422291194E+01  1.771504272E+03
2.423309107E+01  1.771035889E+03
2.424327020E+01  1.768756714E+03
2.425344933E+01  1.767730591E+03
2.426362846E+01  1.767450928E+03
2.427380760E+01  1.766230469E+03
2.428398673E+01  1.765082397E+03
2.429416586E+01  1.762602051E+03
2.430434499E+01  1.760868652E+03
2.431452412E+01  1.761447266E+03
2.432470325E+01  1.761981812E+03
2.433488238E+01  1.761550537E+03
2.434506151E+01  1.760557495E+03
2.435524064E+01  1.759779907E+03
2.436541977E+01  1.759442627E+03
2.437559890E+01  1.759091309E+03
2.438577803E+01  1.758003174E+03
2.439595716E+01  1.757060303E+03
2.440613629E+01  1.756670654E+03
2.441631542E+01  1.756002319E+03
2.442649455E+01  1.754925659E+03
2.443667369E+01  1.754946899E+03
2.444685282E+01  1.755165161E+03
2.445703195E+01  1.753916382E+03
2.446721108E+01  1.752195190E+03
2.447739021E+01  1.750270020E+03
2.448756934E+01  1.749955444E+03
2.449774847E+01  1.751626587E+03
2.450792760E+01  1.751913086E+03
2.451810673E+01  1.749853394E+03
2.452828586E+01  1.748315430E+03
2.453846499E+01  1.747906372E+03
2.454864412E+01  1.747795532E+03
2.455882325E+01  1.746792847E+03
2.456900238E+01  1.745062378E+03
2.457918151E+01  1.743887817E+03
2.458936064E+01  1.743241211E+03
2.459953978E+01  1.742115356E+03
2.460971891E+01  1.740487061E+03
2.461989804E+01  1.741113037E+03
2.463007717E+01  1.740943604E+03
2.464025630E+01  1.740662842E+03
2.465043543E+01  1.738943726E+03
2.466061456E+01  1.736575073E+03
2.467079369E+01  1.735815308E+03
2.468097282E+01  1.735240356E+03
2.469115195E+01  1.734570068E+03
2.470133108E+01  1.734980713E+03
2.471151021E+01  1.736554199E+03
2.472168934E+01  1.736941528E+03
2.473186847E+01  1.736282715E+03
2.474204760E+01  1.735763672E+03
2.475222673E+01  1.733701782E+03
2.476240587E+01  1.730919800E+03
2.477258500E+01  1.728946289E+03
2.478276413E+01  1.728355225E+03
2.479294326E+01  1.728872437E+03
2.480312239E+01  1.726760620E+03
2.481330152E+01  1.725445557E+03
2.482348065E+01  1.726478149E+03
2.483365978E+01  1.726751099E+03
2.484383891E+01  1.727119995E+03
2.485401804E+01  1.727500610E+03
2.486419717E+01  1.727215942E+03
2.487437630E+01  1.726516724E+03
2.488455543E+01  1.725324463E+03
2.489473456E+01  1.723968994E+03
2.490491369E+01  1.723194458E+03
2.491509282E+01  1.722796509E+03
2.492527196E+01  1.722001099E+03
2.493545109E+01  1.720674194E+03
2.494563022E+01  1.719088989E+03
2.495580935E+01  1.717984741E+03
2.496598848E+01  1.718168701E+03
2.497616761E+01  1.718791260E+03
2.498634674E+01  1.718852417E+03
2.499652587E+01  1.718870728E+03
2.500670500E+01  1.717787109E+03
2.501688413E+01  1.715141357E+03
2.502706326E+01  1.713448730E+03
2.503724239E+01  1.712863281E+03
2.504742152E+01  1.712259033E+03
2.505760065E+01  1.712029785E+03
2.506777978E+01  1.711954346E+03
2.507795891E+01  1.710409912E+03
2.508813804E+01  1.709520142E+03
2.509831718E+01  1.710451294E+03
2.510849631E+01  1.711264038E+03
2.511867544E+01  1.711283813E+03
2.512885457E+01  1.710250854E+03
2.513903370E+01  1.708706665E+03
2.514921283E+01  1.707122803E+03
2.515939196E+01  1.705675537E+03
2.516957109E+01  1.705828735E+03
2.517975022E+01  1.706829834E+03
2.518992935E+01  1.706156616E+03
2.520010848E+01  1.705696045E+03
2.521028761E+01  1.706962280E+03
2.522046674E+01  1.707376953E+03
2.523064587E+01  1.706445801E+03
2.524082500E+01  1.705667358E+03
2.525100413E+01  1.705117554E+03
2.526118327E+01  1.703858154E+03
2.527136240E+01  1.702029053E+03
2.528154153E+01  1.699192993E+03
2.529172066E+01  1.698108032E+03
2.530189979E+01  1.699825928E+03
2.531207892E+01  1.700211304E+03
2.532225805E+01  1.698421143E+03
2.533243718E+01  1.696708130E+03
2.534261631E+01  1.695880859E+03
2.535279544E+01  1.695481567E+03
2.536297457E+01  1.695754150E+03
2.537315370E+01  1.694911377E+03
2.538333283E+01  1.693082764E+03
2.539351196E+01  1.692289429E+03
2.540369109E+01  1.690655518E+03
2.541387022E+01  1.688748657E+03
2.542404936E+01  1.686618164E+03
2.543422849E+01  1.686937744E+03
2.544440762E+01  1.687861328E+03
2.545458675E+01  1.687096191E+03
2.546476588E+01  1.686729614E+03
2.547494501E+01  1.686912109E+03
2.548512414E+01  1.687285400E+03
2.549530327E+01  1.686998047E+03
2.550548240E+01  1.686062622E+03
2.551566153E+01  1.683901489E+03
2.552584066E+01  1.682250000E+03
2.553601979E+01  1.682816528E+03
2.554619892E+01  1.682768921E+03
2.555637805E+01  1.682033325E+03
2.556655718E+01  1.680666016E+03
2.557673631E+01  1.679552979E+03
2.558691545E+01  1.679317993E+03
2.559709458E+01  1.680395630E+03
2.560727371E+01  1.680656372E+03
2.561745284E+01  1.679830933E+03
2.562763197E+01  1.677791626E+03
2.563781110E+01  1.676764282E+03
2.564799023E+01  1.678158936E+03
2.565816936E+01  1.678771606E+03
2.566834849E+01  1.677266235E+03
2.567852762E+01  1.675644287E+03
2.568870675E+01  1.674988892E+03
2.569888588E+01  1.674316528E+03
2.570906501E+01  1.674577881E+03
2.571924414E+01  1.675292114E+03
2.572942327E+01  1.674195312E+03
2.573960240E+01  1.671823853E+03
2.574978154E+01  1.671389038E+03
2.575996067E+01  1.671479004E+03
2.577013980E+01  1.670690918E+03
2.578031893E+01  1.669229004E+03
2.579049806E+01  1.668502563E+03
2.580067719E+01  1.668896606E+03
2.581085632E+01  1.668060791E+03
2.582103545E+01  1.667057129E+03
2.583121458E+01  1.668063721E+03
2.584139371E+01  1.667697754E+03
2.585157284E+01  1.664696533E+03
2.586175197E+01  1.663306885E+03
2.587193110E+01  1.662710693E+03
2.588211023E+01  1.662434326E+03
2.589228936E+01  1.661920898E+03
2.590246849E+01  1.661776978E+03
2.591264763E+01  1.660906128E+03
2.592282676E+01  1.660415771E+03
2.593300589E+01  1.661467041E+03
2.594318502E+01  1.662575073E+03
2.595336415E+01  1.663671875E+03
2.596354328E+01  1.662385254E+03
2.597372241E+01  1.659687378E+03
2.598390154E+01  1.658069946E+03
2.599408067E+01  1.656859253E+03
2.600425980E+01  1.656153687E+03
2.601443893E+01  1.654598877E+03
2.602461806E+01  1.654101562E+03
2.603479719E+01  1.655267822E+03
2.604497632E+01  1.654626465E+03
2.605515545E+01  1.653257568E+03
2.606533458E+01  1.652174438E+03
2.607551372E+01  1.650665771E+03
2.608569285E+01  1.650018188E+03
2.609587198E+01  1.649326294E+03
2.610605111E+01  1.648573730E+03
2.611623024E+01  1.648563721E+03
2.612640937E+01  1.648515625E+03
2.613658850E+01  1.648314331E+03
2.614676763E+01  1.648992188E+03
2.615694676E+01  1.648234131E+03
2.616712589E+01  1.645259644E+03
2.617730502E+01  1.643315430E+03
2.618748415E+01  1.642968262E+03
2.619766328E+01  1.641997559E+03
2.620784241E+01  1.641763184E+03
2.621802154E+01  1.642577026E+03
2.622820067E+01  1.643083984E+03
2.623837980E+01  1.643461304E+03
2.624855894E+01  1.642169189E+03
2.625873807E+01  1.641428711E+03
2.626891720E+01  1.641553833E+03
2.627909633E+01  1.640432251E+03
2.628927546E+01  1.639293945E+03
2.629945459E+01  1.639501343E+03
2.630963372E+01  1.639838501E+03
2.631981285E+01  1.639939575E+03
2.632999198E+01  1.639116943E+03
2.634017111E+01  1.637939331E+03
2.635035024E+01  1.636970215E+03
2.636052937E+01  1.636190552E+03
2.637070850E+01  1.636337891E+03
2.638088763E+01  1.636249634E+03
2.639106676E+01  1.634658691E+03
2.640124589E+01  1.632829590E+03
2.641142503E+01  1.631962891E+03
2.642160416E+01  1.631939453E+03
2.643178329E+01  1.631778442E+03
2.644196242E+01  1.632510742E+03
2.645214155E+01  1.634356567E+03
2.646232068E+01  1.633979004E+03
2.647249981E+01  1.631158813E+03
2.648267894E+01  1.628963745E+03
2.649285807E+01  1.628120972E+03
2.650303720E+01  1.628849365E+03
2.651321633E+01  1.627900391E+03
2.652339546E+01  1.626431030E+03
2.653357459E+01  1.625868164E+03
2.654375372E+01  1.624142212E+03
2.655393285E+01  1.624209351E+03
2.656411198E+01  1.626801758E+03
2.657429112E+01  1.626349609E+03
2.658447025E+01  1.625029175E+03
2.659464938E+01  1.623918701E+03
2.660482851E+01  1.622008667E+03
2.661500764E+01  1.620739014E+03
2.662518677E+01  1.620191528E+03
2.663536590E+01  1.621231689E+03
2.664554503E+01  1.622004517E+03
2.665572416E+01  1.621106079E+03
2.666590329E+01  1.621273560E+03
2.667608242E+01  1.621338501E+03
2.668626155E+01  1.621006958E+03
2.669644068E+01  1.620206543E+03
2.670661981E+01  1.618588501E+03
2.671679894E+01  1.617686523E+03
2.672697807E+01  1.617622803E+03
2.673715721E+01  1.616618042E+03
2.674733634E+01  1.615797241E+03
2.675751547E+01  1.615184326E+03
2.676769460E+01  1.614879150E+03
2.677787373E+01  1.614558960E+03
2.678805286E+01  1.613341797E+03
2.679823199E+01  1.611550171E+03
2.680841112E+01  1.609379395E+03
2.681859025E+01  1.609482300E+03
2.682876938E+01  1.610741455E+03
2.683894851E+01  1.611716064E+03
2.684912764E+01  1.610974487E+03
2.685930677E+01  1.610553101E+03
2.686948590E+01  1.612103149E+03
2.687966503E+01  1.612678955E+03
2.688984416E+01  1.610988892E+03
2.690002330E+01  1.610017334E+03
2.691020243E+01  1.609996948E+03
2.692038156E+01  1.610111084E+03
2.693056069E+01  1.610912476E+03
2.694073982E+01  1.608870728E+03
2.695091895E+01  1.607057251E+03
2.696109808E+01  1.606749756E+03
2.697127721E+01  1.604755615E+03
2.698145634E+01  1.603746948E+03
2.699163547E+01  1.604486816E+03
2.700181460E+01  1.602944702E+03
2.701199373E+01  1.601650513E+03
2.702217286E+01  1.602193726E+03
2.703235199E+01  1.601951660E+03
2.704253112E+01  1.601476440E+03
2.705271025E+01  1.600778564E+03
2.706288939E+01  1.600326904E+03
2.707306852E+01  1.601466553E+03
2.708324765E+01  1.601160645E+03
2.709342678E+01  1.599153442E+03
2.710360591E+01  1.598178589E+03
2.711378504E+01  1.597386108E+03
2.712396417E+01  1.596723145E+03
2.713414330E+01  1.596505371E+03
2.714432243E+01  1.596349487E+03
2.715450156E+01  1.595298340E+03
2.716468069E+01  1.595277344E+03
2.717485982E+01  1.595606201E+03
2.718503895E+01  1.596781494E+03
2.719521808E+01  1.596944458E+03
2.720539721E+01  1.597004150E+03
2.721557634E+01  1.597327393E+03
2.722575547E+01  1.594734497E+03
2.723593461E+01  1.591045898E+03
2.724611374E+01  1.588646606E+03
2.725629287E+01  1.589251587E+03
2.726647200E+01  1.589272461E+03
2.727665113E+01  1.588328369E+03
2.728683026E+01  1.586670776E+03
2.729700939E+01  1.584720581E+03
2.730718852E+01  1.583852051E+03
2.731736765E+01  1.584177002E+03
2.732754678E+01  1.583865112E+03
2.733772591E+01  1.582468140E+03
2.734790504E+01  1.581998413E+03
2.735808417E+01  1.582530640E+03
2.736826330E+01  1.581581055E+03
2.737844243E+01  1.580196167E+03
2.738862156E+01  1.579540405E+03
2.739880070E+01  1.579877563E+03
2.740897983E+01  1.580856689E+03
2.741915896E+01  1.581025879E+03
2.742933809E+01  1.580118408E+03
2.743951722E+01  1.580174683E+03
2.744969635E+01  1.581324707E+03
2.745987548E+01  1.580017822E+03
2.747005461E+01  1.578879395E+03
2.748023374E+01  1.579914917E+03
2.749041287E+01  1.578646973E+03
2.750059200E+01  1.576435913E+03
2.751077113E+01  1.576112793E+03
2.752095026E+01  1.575184082E+03
2.753112939E+01  1.572946411E+03
2.754130852E+01  1.570425781E+03
2.755148765E+01  1.570574951E+03
2.756166679E+01  1.571530518E+03
2.757184592E+01  1.571145264E+03
2.758202505E+01  1.571118530E+03
2.759220418E+01  1.572091919E+03
2.760238331E+01  1.572273560E+03
2.761256244E+01  1.571847412E+03
2.762274157E+01  1.570876831E+03
2.763292070E+01  1.569020996E+03
2.764309983E+01  1.567920654E+03
2.765327896E+01  1.566383179E+03
2.766345809E+01  1.565398560E+03
2.767363722E+01  1.566829224E+03
2.768381635E+01  1.566889526E+03
2.769399548E+01  1.565657349E+03
2.770417461E+01  1.565093018E+03
2.771435374E+01  1.563345215E+03
2.772453288E+01  1.562212524E+03
2.773471201E+01  1.562226929E+03
2.774489114E+01  1.562228516E+03
2.775507027E+01  1.560357422E+03
2.776524940E+01  1.560179199E+03
2.777542853E+01  1.561416626E+03
2.778560766E+01  1.562801147E+03
2.779578679E+01  1.563076538E+03
2.780596592E+01  1.562328125E+03
2.781614505E+01  1.563561401E+03
2.782632418E+01  1.564712769E+03
2.783650331E+01  1.563594238E+03
2.784668244E+01  1.562159790E+03
2.785686157E+01  1.561919678E+03
2.786704070E+01  1.561582153E+03
2.787721983E+01  1.561385132E+03
2.788739897E+01  1.561783569E+03
2.789757810E+01  1.561652344E+03
2.790775723E+01  1.559492920E+03
2.791793636E+01  1.556884399E+03
2.792811549E+01  1.555787231E+03
2.793829462E+01  1.556612305E+03
2.794847375E+01  1.557947021E+03
2.795865288E+01  1.558163208E+03
2.796883201E+01  1.557117676E+03
2.797901114E+01  1.556443481E+03
2.798919027E+01  1.556292358E+03
2.799936940E+01  1.556664551E+03
2.800954853E+01  1.557527588E+03
2.801972766E+01  1.558036011E+03
2.802990679E+01  1.557625366E+03
2.804008592E+01  1.557178345E+03
2.805026506E+01  1.555870728E+03
2.806044419E+01  1.553463867E+03
2.807062332E+01  1.551698853E+03
2.808080245E+01  1.549334717E+03
2.809098158E+01  1.547038696E+03
2.810116071E+01  1.546306885E+03
2.811133984E+01  1.546308594E+03
2.812151897E+01  1.547494263E+03
2.813169810E+01  1.547459229E+03
2.814187723E+01  1.546302612E+03
2.815205636E+01  1.546854492E+03
2.816223549E+01  1.547204590E+03
2.817241462E+01  1.546035645E+03
2.818259375E+01  1.544208374E+03
2.819277288E+01  1.543020874E+03
2.820295201E+01  1.542153564E+03
2.821313114E+01  1.542175781E+03
2.822331028E+01  1.541808472E+03
2.823348941E+01  1.541427490E+03
2.824366854E+01  1.541620605E+03
2.825384767E+01  1.541043335E+03
2.826402680E+01  1.540510254E+03
2.827420593E+01  1.540047729E+03
2.828438506E+01  1.538370728E+03
2.829456419E+01  1.537272949E+03
2.830474332E+01  1.537353394E+03
2.831492245E+01  1.536730713E+03
2.832510158E+01  1.535691772E+03
2.833528071E+01  1.535382690E+03
2.834545984E+01  1.536067505E+03
2.835563897E+01  1.535010864E+03
2.836581810E+01  1.533064209E+03
2.837599723E+01  1.532833862E+03
2.838617637E+01  1.532750488E+03
2.839635550E+01  1.531133179E+03
2.840653463E+01  1.530258057E+03
2.841671376E+01  1.530377197E+03
2.842689289E+01  1.530517822E+03
2.843707202E+01  1.530367798E+03
2.844725115E+01  1.530561279E+03
2.845743028E+01  1.528750244E+03
2.846760941E+01  1.528421875E+03
2.847778854E+01  1.528517578E+03
2.848796767E+01  1.527138794E+03
2.849814680E+01  1.525616821E+03
2.850832593E+01  1.525437744E+03
2.851850506E+01  1.525705200E+03
2.852868419E+01  1.524163208E+03
2.853886332E+01  1.522402588E+03
2.854904246E+01  1.522202759E+03
2.855922159E+01  1.522166382E+03
2.856940072E+01  1.522348633E+03
2.857957985E+01  1.521992432E+03
2.858975898E+01  1.520006958E+03
2.859993811E+01  1.519735840E+03
2.861011724E+01  1.519747192E+03
2.862029637E+01  1.519121582E+03
2.863047550E+01  1.519386475E+03
2.864065463E+01  1.519490601E+03
2.865083376E+01  1.519515869E+03
2.866101289E+01  1.520207397E+03
2.867119202E+01  1.519933594E+03
2.868137115E+01  1.517536865E+03
2.869155028E+01  1.516706665E+03
2.870172941E+01  1.516635986E+03
2.871190855E+01  1.516738525E+03
2.872208768E+01  1.516066040E+03
2.873226681E+01  1.514805298E+03
2.874244594E+01  1.514744019E+03
2.875262507E+01  1.513814941E+03
2.876280420E+01  1.512479492E+03
2.877298333E+01  1.512461426E+03
2.878316246E+01  1.511420898E+03
2.879334159E+01  1.509211670E+03
2.880352072E+01  1.508807007E+03
2.881369985E+01  1.510244141E+03
2.882387898E+01  1.511231445E+03
2.883405811E+01  1.509990601E+03
2.884423724E+01  1.507942505E+03
2.885441637E+01  1.507164673E+03
2.886459550E+01  1.504897461E+03
2.887477464E+01  1.501917358E+03
2.888495377E+01  1.501422119E+03
2.889513290E+01  1.499823608E+03
2.890531203E+01  1.498861328E+03
2.891549116E+01  1.498058716E+03
2.892567029E+01  1.496485229E+03
2.893584942E+01  1.494065674E+03
2.894602855E+01  1.490116455E+03
2.895620768E+01  1.487593750E+03
2.896638681E+01  1.487097900E+03
2.897656594E+01  1.483927002E+03
2.898674507E+01  1.478216553E+03
2.899692420E+01  1.472922241E+03
2.900710333E+01  1.467460327E+03
2.901728246E+01  1.462718262E+03
2.902746159E+01  1.459689575E+03
2.903764073E+01  1.457108643E+03
2.904781986E+01  1.453734863E+03
2.905799899E+01  1.448843628E+03
2.906817812E+01  1.443330688E+03
2.907835725E+01  1.438877930E+03
2.908853638E+01  1.435445435E+03
2.909871551E+01  1.431041870E+03
2.910889464E+01  1.425653076E+03
2.911907377E+01  1.420569336E+03
2.912925290E+01  1.415932007E+03
2.913943203E+01  1.412677979E+03
2.914961116E+01  1.410354248E+03
2.915979029E+01  1.404217773E+03
2.916996942E+01  1.396405029E+03
2.918014855E+01  1.391664429E+03
2.919032768E+01  1.388091309E+03
2.920050681E+01  1.382309204E+03
2.921068595E+01  1.375324463E+03
2.922086508E+01  1.369370361E+03
2.923104421E+01  1.363929565E+03
2.924122334E+01  1.358896729E+03
2.925140247E+01  1.354855347E+03
2.926158160E+01  1.351007935E+03
2.927176073E+01  1.346171753E+03
2.928193986E+01  1.340099487E+03
2.929211899E+01  1.334594727E+03
2.930229812E+01  1.329490234E+03
2.931247725E+01  1.323701538E+03
2.932265638E+01  1.317651367E+03
2.933283551E+01  1.311889771E+03
2.934301464E+01  1.306174438E+03
2.935319377E+01  1.300020996E+03
2.936337290E+01  1.294389893E+03
2.937355204E+01  1.290646851E+03
2.938373117E+01  1.286647949E+03
2.939391030E+01  1.280734619E+03
2.940408943E+01  1.274073242E+03
2.941426856E+01  1.268368896E+03
2.942444769E+01  1.263047241E+03
2.943462682E+01  1.256653687E+03
2.944480595E+01  1.250421997E+03
2.945498508E+01  1.244741089E+03
2.946516421E+01  1.240086548E+03
2.947534334E+01  1.235093994E+03
2.948552247E+01  1.229484497E+03
2.949570160E+01  1.223206665E+03
2.950588073E+01  1.218268311E+03
2.951605986E+01  1.213430054E+03
2.952623899E+01  1.206301636E+03
2.953641813E+01  1.200017456E+03
2.954659726E+01  1.194119019E+03
2.955677639E+01  1.187871704E+03
2.956695552E+01  1.181892822E+03
2.957713465E+01  1.176737671E+03
2.958731378E+01  1.171674561E+03
2.959749291E+01  1.166632324E+03
2.960767204E+01  1.162456421E+03
2.961785117E+01  1.157826538E+03
2.962803030E+01  1.154030029E+03
2.963820943E+01  1.150096069E+03
2.964838856E+01  1.143847534E+03
2.965856769E+01  1.137169312E+03
2.966874682E+01  1.131447388E+03
2.967892595E+01  1.126160645E+03
2.968910508E+01  1.121845337E+03
2.969928422E+01  1.118237183E+03
2.970946335E+01  1.113552246E+03
2.971964248E+01  1.108457031E+03
2.972982161E+01  1.103157959E+03
2.974000074E+01  1.099247681E+03
2.975017987E+01  1.096970215E+03
2.976035900E+01  1.095027100E+03
2.977053813E+01  1.091167725E+03
2.978071726E+01  1.086215088E+03
2.979089639E+01  1.083008545E+03
2.980107552E+01  1.081006714E+03
2.981125465E+01  1.077083862E+03
2.982143378E+01  1.071760864E+03
2.983161291E+01  1.066925049E+03
2.984179204E+01  1.063571777E+03
2.985197117E+01  1.061626465E+03
2.986215031E+01  1.058407471E+03
2.987232944E+01  1.054891968E+03
2.988250857E+01  1.051758667E+03
2.989268770E+01  1.047147461E+03
2.990286683E+01  1.042426270E+03
2.991304596E+01  1.039107422E+03
2.992322509E+01  1.035194458E+03
2.993340422E+01  1.031291504E+03
2.994358335E+01  1.028226318E+03
2.995376248E+01  1.024496338E+03
2.996394161E+01  1.021223328E+03
2.997412074E+01  1.018016663E+03
2.998429987E+01  1.014262512E+03
2.999447900E+01  1.010899353E+03
3.000465813E+01  1.007739014E+03
3.001483726E+01  1.003751343E+03
3.002501640E+01  1.000772095E+03
3.003519553E+01  9.990988770E+02
3.004537466E+01  9.974522705E+02
3.005555379E+01  9.969038086E+02
3.006573292E+01  9.957243042E+02
3.007591205E+01  9.948618164E+02
3.008609118E+01  9.940712891E+02
3.009627031E+01  9.926672974E+02
3.010644944E+01  9.917660522E+02
3.011662857E+01  9.912258301E+02
3.012680770E+01  9.911312866E+02
3.013698683E+01  9.907008667E+02
3.014716596E+01  9.889746094E+02
3.015734509E+01  9.888499146E+02
3.016752422E+01  9.910020142E+02
3.017770335E+01  9.913024902E+02
3.018788249E+01  9.898604736E+02
3.019806162E+01  9.893647461E+02
3.020824075E+01  9.888034058E+02
3.021841988E+01  9.890658569E+02
3.022859901E+01  9.895787964E+02
3.023877814E+01  9.875290527E+02
3.024895727E+01  9.855603027E+02
3.025913640E+01  9.860036621E+02
3.026931553E+01  9.857772827E+02
3.027949466E+01  9.849805298E+02
3.028967379E+01  9.838995361E+02
3.029985292E+01  9.835841064E+02
3.031003205E+01  9.837864990E+02
3.032021118E+01  9.843202515E+02
3.033039031E+01  9.839788818E+02
3.034056944E+01  9.823806763E+02
3.035074857E+01  9.809788208E+02
3.036092771E+01  9.808822021E+02
3.037110684E+01  9.812752686E+02
3.038128597E+01  9.816168823E+02
3.039146510E+01  9.809008179E+02
3.040164423E+01  9.795739746E+02
3.041182336E+01  9.786732788E+02
3.042200249E+01  9.776167603E+02
3.043218162E+01  9.769310913E+02
3.044236075E+01  9.778503418E+02
3.045253988E+01  9.782164307E+02
3.046271901E+01  9.769235840E+02
3.047289814E+01  9.747557373E+02
3.048307727E+01  9.735224609E+02
3.049325640E+01  9.742322388E+02
3.050343553E+01  9.740530396E+02
3.051361466E+01  9.723580933E+02
3.052379380E+01  9.708793335E+02
3.053397293E+01  9.698342285E+02
3.054415206E+01  9.704738770E+02
3.055433119E+01  9.720303955E+02
3.056451032E+01  9.707987671E+02
3.057468945E+01  9.687528687E+02
3.058486858E+01  9.677245483E+02
3.059504771E+01  9.670244751E+02
3.060522684E+01  9.669281006E+02
3.061540597E+01  9.669988403E+02
3.062558510E+01  9.663379517E+02
3.063576423E+01  9.645535278E+02
3.064594336E+01  9.629500732E+02
3.065612249E+01  9.625466919E+02
3.066630162E+01  9.622805786E+02
3.067648075E+01  9.619442749E+02
3.068665989E+01  9.614014893E+02
3.069683902E+01  9.605639038E+02
3.070701815E+01  9.609166260E+02
3.071719728E+01  9.615783081E+02
3.072737641E+01  9.614375000E+02
3.073755554E+01  9.604417725E+02
3.074773467E+01  9.595701904E+02
3.075791380E+01  9.584923096E+02
3.076809293E+01  9.573660278E+02
3.077827206E+01  9.561307373E+02
3.078845119E+01  9.559984131E+02
3.079863032E+01  9.564284668E+02
3.080880945E+01  9.557092896E+02
3.081898858E+01  9.542022095E+02
3.082916771E+01  9.530968018E+02
3.083934684E+01  9.520087280E+02
3.084952598E+01  9.560883179E+02
3.085970511E+01  9.686105347E+02
3.086988424E+01  9.752883301E+02
3.088006337E+01  9.770833740E+02
3.089024250E+01  9.799874268E+02
3.090042163E+01  9.816376343E+02
3.091060076E+01  9.823252563E+02
3.092077989E+01  9.838624878E+02
3.093095902E+01  9.863671875E+02
3.094113815E+01  9.875215454E+02
3.095131728E+01  9.876917725E+02
3.096149641E+01  9.880101318E+02
3.097167554E+01  9.880256958E+02
3.098185467E+01  9.888116455E+02
3.099203380E+01  9.899620972E+02
3.100221293E+01  9.906983643E+02
3.101239207E+01  9.916770020E+02
3.102257120E+01  9.924633179E+02
3.103275033E+01  9.938349609E+02
3.104292946E+01  9.950720825E+02
3.105310859E+01  9.946754761E+02
3.106328772E+01  9.929179688E+02
3.107346685E+01  9.906224976E+02
3.108364598E+01  9.904395142E+02
3.109382511E+01  9.914067383E+02
3.110400424E+01  9.934440308E+02
3.111418337E+01  9.947199097E+02
3.112436250E+01  9.951661377E+02
3.113454163E+01  9.963684692E+02
3.114472076E+01  9.963071899E+02
3.115489989E+01  9.959172363E+02
3.116507902E+01  9.946905518E+02
3.117525816E+01  9.931551514E+02
3.118543729E+01  9.931025391E+02
3.119561642E+01  9.939995728E+02
3.120579555E+01  9.943282471E+02
3.121597468E+01  9.951976929E+02
3.122615381E+01  9.949412231E+02
3.123633294E+01  9.939123535E+02
3.124651207E+01  9.936004028E+02
3.125669120E+01  9.930276489E+02
3.126687033E+01  9.914035645E+02
3.127704946E+01  9.899353638E+02
3.128722859E+01  9.899292603E+02
3.129740772E+01  9.916354980E+02
3.130758685E+01  9.939379883E+02
3.131776598E+01  9.936706543E+02
3.132794511E+01  9.926098633E+02
3.133812424E+01  9.924247437E+02
3.134830338E+01  9.917852173E+02
3.135848251E+01  9.908770142E+02
3.136866164E+01  9.903712769E+02
3.137884077E+01  9.908460693E+02
3.138901990E+01  9.902595825E+02
3.139919903E+01  9.897208252E+02
3.140937816E+01  9.897693481E+02
3.141955729E+01  9.895731812E+02
3.142973642E+01  9.896868896E+02
3.143991555E+01  9.886502686E+02
3.145009468E+01  9.871583862E+02
3.146027381E+01  9.871261597E+02
3.147045294E+01  9.856130371E+02
3.148063207E+01  9.828181763E+02
3.149081120E+01  9.825106201E+02
3.150099033E+01  9.844130859E+02
3.151116947E+01  9.867864990E+02
3.152134860E+01  9.868055420E+02
3.153152773E+01  9.844744873E+02
3.154170686E+01  9.832623901E+02
3.155188599E+01  9.834190063E+02
3.156206512E+01  9.844454346E+02
3.157224425E+01  9.842175293E+02
3.158242338E+01  9.834392700E+02
3.159260251E+01  9.831010132E+02
3.160278164E+01  9.803908691E+02
3.161296077E+01  9.777709961E+02
3.162313990E+01  9.772653198E+02
3.163331903E+01  9.766093750E+02
3.164349816E+01  9.776046143E+02
3.165367729E+01  9.786503906E+02
3.166385642E+01  9.783511353E+02
3.167403556E+01  9.772687988E+02
3.168421469E+01  9.761567993E+02
3.169439382E+01  9.761600342E+02
3.170457295E+01  9.768037720E+02
3.171475208E+01  9.756403809E+02
3.172493121E+01  9.765189209E+02
3.173511034E+01  9.775032349E+02
3.174528947E+01  9.766855469E+02
3.175546860E+01  9.753596802E+02
3.176564773E+01  9.740104370E+02
3.177582686E+01  9.736652222E+02
3.178600599E+01  9.731376343E+02
3.179618512E+01  9.715526733E+02
3.180636425E+01  9.697836304E+02
3.181654338E+01  9.707109985E+02
3.182672251E+01  9.717050781E+02
3.183690165E+01  9.712504272E+02
3.184708078E+01  9.687017212E+02
3.185725991E+01  9.660099487E+02
3.186743904E+01  9.648355103E+02
3.187761817E+01  9.644649048E+02
3.188779730E+01  9.660607910E+02
3.189797643E+01  9.651457520E+02
3.190815556E+01  9.647774658E+02
3.191833469E+01  9.633463135E+02
3.192851382E+01  9.612700806E+02
3.193869295E+01  9.600527954E+02
3.194887208E+01  9.582511597E+02
3.195905121E+01  9.570958252E+02
3.196923034E+01  9.552489624E+02
3.197940947E+01  9.536367798E+02
3.198958860E+01  9.531701050E+02
3.199976774E+01  9.535557251E+02
3.200994687E+01  9.519413452E+02
3.202012600E+01  9.502913818E+02
3.203030513E+01  9.497205811E+02
3.204048426E+01  9.510909424E+02
3.205066339E+01  9.495162354E+02
3.206084252E+01  9.469459839E+02
3.207102165E+01  9.460917358E+02
3.208120078E+01  9.458640137E+02
3.209137991E+01  9.462680664E+02
3.210155904E+01  9.456040649E+02
3.211173817E+01  9.433304443E+02
3.212191730E+01  9.419110107E+02
3.213209643E+01  9.412276001E+02
3.214227556E+01  9.401931152E+02
3.215245469E+01  9.390702515E+02
3.216263383E+01  9.385292358E+02
3.217281296E+01  9.361144409E+02
3.218299209E+01  9.330842285E+02
3.219317122E+01  9.345297241E+02
3.220335035E+01  9.356341553E+02
3.221352948E+01  9.349073486E+02
3.222370861E+01  9.342038574E+02
3.223388774E+01  9.411781006E+02
3.224406687E+01  9.667498779E+02
3.225424600E+01  9.918193970E+02
3.226442513E+01  1.001272217E+03
3.227460426E+01  1.007741577E+03
3.228478339E+01  1.010158447E+03
3.229496252E+01  1.012079468E+03
3.230514165E+01  1.015625183E+03
3.231532078E+01  1.015834351E+03
3.232549991E+01  1.018037903E+03
3.233567905E+01  1.021518860E+03
3.234585818E+01  1.020630005E+03
3.235603731E+01  1.018220520E+03
3.236621644E+01  1.017054382E+03
3.237639557E+01  1.020391174E+03
3.238657470E+01  1.023351990E+03
3.239675383E+01  1.021057190E+03
3.240693296E+01  1.016461243E+03
3.241711209E+01  1.014386536E+03
3.242729122E+01  1.016609680E+03
3.243747035E+01  1.018223328E+03
3.244764948E+01  1.016018982E+03
3.245782861E+01  1.014875610E+03
3.246800774E+01  1.015131165E+03
3.247818687E+01  1.013280396E+03
3.248836600E+01  1.011770508E+03
3.249854514E+01  1.011810486E+03
3.250872427E+01  1.012599304E+03
3.251890340E+01  1.010333679E+03
3.252908253E+01  1.006700195E+03
3.253926166E+01  1.003233582E+03
3.254944079E+01  1.000736450E+03
3.255961992E+01  1.000246094E+03
3.256979905E+01  9.991630249E+02
3.257997818E+01  9.969451904E+02
3.259015731E+01  9.938193970E+02
3.260033644E+01  9.920198975E+02
3.261051557E+01  9.889991455E+02
3.262069470E+01  9.844643555E+02
3.263087383E+01  9.824974976E+02
3.264105296E+01  9.806968994E+02
3.265123209E+01  9.806586304E+02
3.266141123E+01  9.779487915E+02
3.267159036E+01  9.734631958E+02
3.268176949E+01  9.736010742E+02
3.269194862E+01  9.716554565E+02
3.270212775E+01  9.666292725E+02
3.271230688E+01  9.650707397E+02
3.272248601E+01  9.610935669E+02
3.273266514E+01  9.552236938E+02
3.274284427E+01  9.510532837E+02
3.275302340E+01  9.489649048E+02
3.276320253E+01  9.437621460E+02
3.277338166E+01  9.391466064E+02
3.278356079E+01  9.385516968E+02
3.279373992E+01  9.380211182E+02
3.280391905E+01  9.356939697E+02
3.281409818E+01  9.344869995E+02
3.282427732E+01  9.341295776E+02
3.283445645E+01  9.315595093E+02
3.284463558E+01  9.237062988E+02
3.285481471E+01  9.189372559E+02
3.286499384E+01  9.188489380E+02
3.287517297E+01  9.154067993E+02
3.288535210E+01  9.060524902E+02
3.289553123E+01  9.014190674E+02
3.290571036E+01  8.984702148E+02
3.291588949E+01  8.927633057E+02
3.292606862E+01  8.875679321E+02
3.293624775E+01  8.855061646E+02
3.294642688E+01  8.859036255E+02
3.295660601E+01  8.806332397E+02
3.296678514E+01  8.738012085E+02
3.297696427E+01  8.702288818E+02
3.298714341E+01  8.669539795E+02
3.299732254E+01  8.619805298E+02
3.300750167E+01  8.551260986E+02
3.301768080E+01  8.471405029E+02
3.302785993E+01  8.421340332E+02
3.303803906E+01  8.374541626E+02
3.304821819E+01  8.313968506E+02
3.305839732E+01  8.274832764E+02
3.306857645E+01  8.197256470E+02
3.307875558E+01  8.093865967E+02
3.308893471E+01  7.977957764E+02
3.309911384E+01  7.930521851E+02
3.310929297E+01  7.903681030E+02
3.311947210E+01  7.847517090E+02
3.312965123E+01  7.775726318E+02
3.313983036E+01  7.709315796E+02
3.315000950E+01  7.634474487E+02
3.316018863E+01  7.561205444E+02
3.317036776E+01  7.514519043E+02
3.318054689E+01  7.414094238E+02
3.319072602E+01  7.316598511E+02
3.320090515E+01  7.281660156E+02
3.321108428E+01  7.176967163E+02
3.322126341E+01  7.061055908E+02
3.323144254E+01  7.057363892E+02
3.324162167E+01  7.069943848E+02
3.325180080E+01  7.049167480E+02
3.326197993E+01  7.037039185E+02
3.327215906E+01  6.980552368E+02
3.328233819E+01  6.965794067E+02
3.329251732E+01  6.971077881E+02
3.330269645E+01  6.970769043E+02
3.331287558E+01  6.923638916E+02
3.332305472E+01  6.860707397E+02
3.333323385E+01  6.828947144E+02
3.334341298E+01  6.835893555E+02
3.335359211E+01  6.883905640E+02
3.336377124E+01  6.867659302E+02
3.337395037E+01  6.913328247E+02
3.338412950E+01  6.946674194E+02
3.339430863E+01  6.922143555E+02
3.340448776E+01  6.916304321E+02
3.341466689E+01  6.894903564E+02
3.342484602E+01  6.877554932E+02
3.343502515E+01  6.834782104E+02
3.344520428E+01  6.816179199E+02
3.345538341E+01  6.804095459E+02
3.346556254E+01  6.773678589E+02
3.347574167E+01  6.820744019E+02
3.348592081E+01  6.852730713E+02
3.349609994E+01  6.776896973E+02
3.350627907E+01  6.678760376E+02
3.351645820E+01  6.575275269E+02
3.352663733E+01  6.487717285E+02
3.353681646E+01  6.549885864E+02
3.354699559E+01  6.610232544E+02
3.355717472E+01  6.537260742E+02
3.356735385E+01  6.437644653E+02
3.357753298E+01  6.377651978E+02
3.358771211E+01  6.366732788E+02
3.359789124E+01  6.366240845E+02
3.360807037E+01  6.354895630E+02
3.361824950E+01  6.347949219E+02
3.362842863E+01  6.231246948E+02
