PHOENIX module phox; 01/23/18 at 16:23:51 -08:00
energy (meV),partial phonon DOS (1/eV),error of partial phonon DOS (1/eV)
 0.00000E+00, 0.00000E+00, 0.00000E+00
 2.47717E-01, 4.51465E-03, 4.53263E-03
 4.95433E-01, 1.81470E-02, 1.47670E-02
 7.43150E-01, 4.08471E-02, 2.48026E-02
 9.90866E-01, 7.18272E-02, 3.02846E-02
 1.23858E+00, 1.09432E-01, 3.32894E-02
 1.48630E+00, 1.52564E-01, 3.63477E-02
 1.73402E+00, 2.02751E-01, 3.95094E-02
 1.98173E+00, 2.69540E-01, 4.30495E-02
 2.22945E+00, 3.65649E-01, 4.99301E-02
 2.47717E+00, 4.70518E-01, 5.45967E-02
 2.72488E+00, 5.66653E-01, 6.41521E-02
 2.97260E+00, 6.62937E-01, 7.30219E-02
 3.22032E+00, 7.57717E-01, 8.46553E-02
 3.46803E+00, 8.54987E-01, 1.00948E-01
 3.71575E+00, 9.49390E-01, 1.07818E-01
 3.96347E+00, 1.07339E+00, 1.29718E-01
 4.21118E+00, 1.19275E+00, 1.46208E-01
 4.45890E+00, 1.26792E+00, 1.47370E-01
 4.70662E+00, 1.40138E+00, 1.75966E-01
 4.95433E+00, 1.62242E+00, 1.83018E-01
 5.20205E+00, 1.85914E+00, 1.98515E-01
 5.44976E+00, 2.07893E+00, 2.34105E-01
 5.69748E+00, 2.26496E+00, 2.48265E-01
 5.94520E+00, 2.42815E+00, 2.55184E-01
 6.19291E+00, 2.56307E+00, 2.87706E-01
 6.44063E+00, 2.69591E+00, 3.12187E-01
 6.68835E+00, 2.87532E+00, 3.36745E-01
 6.93606E+00, 3.09282E+00, 3.76118E-01
 7.18378E+00, 3.20603E+00, 3.83501E-01
 7.43150E+00, 3.20397E+00, 3.61348E-01
 7.67921E+00, 3.40336E+00, 4.33723E-01
 7.92693E+00, 3.84811E+00, 4.71971E-01
 8.17465E+00, 4.20515E+00, 4.88514E-01
 8.42236E+00, 4.41612E+00, 5.02664E-01
 8.67008E+00, 4.58861E+00, 5.17960E-01
 8.91780E+00, 4.89063E+00, 5.73929E-01
 9.16551E+00, 5.28339E+00, 5.91635E-01
 9.41323E+00, 5.73267E+00, 6.73000E-01
 9.66095E+00, 5.89531E+00, 6.58005E-01
 9.90866E+00, 5.84164E+00, 6.21998E-01
 1.01564E+01, 5.82680E+00, 6.54014E-01
 1.04041E+01, 6.06483E+00, 7.31258E-01
 1.06518E+01, 6.63498E+00, 8.27328E-01
 1.08995E+01, 7.36011E+00, 8.24678E-01
 1.11472E+01, 7.84115E+00, 8.65938E-01
 1.13950E+01, 8.12726E+00, 9.38632E-01
 1.16427E+01, 8.34619E+00, 8.88494E-01
 1.18904E+01, 8.78464E+00, 9.56976E-01
 1.21381E+01, 9.39985E+00, 1.04499E+00
 1.23858E+01, 9.93888E+00, 1.06182E+00
 1.26335E+01, 1.05330E+01, 1.12644E+00
 1.28813E+01, 1.13548E+01, 1.19032E+00
 1.31290E+01, 1.20359E+01, 1.29366E+00
 1.33767E+01, 1.24132E+01, 1.33746E+00
 1.36244E+01, 1.27422E+01, 1.26602E+00
 1.38721E+01, 1.32118E+01, 1.42489E+00
 1.41198E+01, 1.35989E+01, 1.41398E+00
 1.43676E+01, 1.36542E+01, 1.37134E+00
 1.46153E+01, 1.41043E+01, 1.44126E+00
 1.48630E+01, 1.53182E+01, 1.58424E+00
 1.51107E+01, 1.66032E+01, 1.65690E+00
 1.53584E+01, 1.80127E+01, 1.72747E+00
 1.56061E+01, 1.92945E+01, 1.89250E+00
 1.58539E+01, 1.99754E+01, 1.80985E+00
 1.61016E+01, 2.03871E+01, 1.95463E+00
 1.63493E+01, 2.08330E+01, 2.02716E+00
 1.65970E+01, 2.06580E+01, 1.91776E+00
 1.68447E+01, 2.12052E+01, 2.04567E+00
 1.70924E+01, 2.36291E+01, 2.25295E+00
 1.73402E+01, 2.63777E+01, 2.34036E+00
 1.75879E+01, 2.78065E+01, 2.34745E+00
 1.78356E+01, 2.85567E+01, 2.51286E+00
 1.80833E+01, 2.91657E+01, 2.43539E+00
 1.83310E+01, 2.89558E+01, 2.49282E+00
 1.85787E+01, 2.89126E+01, 2.49892E+00
 1.88265E+01, 3.03434E+01, 2.80056E+00
 1.90742E+01, 3.24459E+01, 2.86993E+00
 1.93219E+01, 3.50510E+01, 2.99890E+00
 1.95696E+01, 3.80893E+01, 3.08850E+00
 1.98173E+01, 4.01538E+01, 3.25260E+00
 2.00650E+01, 4.23208E+01, 3.17770E+00
 2.03128E+01, 4.64160E+01, 3.35720E+00
 2.05605E+01, 5.11571E+01, 3.68711E+00
 2.08082E+01, 5.46778E+01, 3.80083E+00
 2.10559E+01, 5.66702E+01, 3.95506E+00
 2.13036E+01, 5.91378E+01, 4.24816E+00
 2.15513E+01, 6.37683E+01, 4.26672E+00
 2.17991E+01, 6.82418E+01, 4.40462E+00
 2.20468E+01, 7.10905E+01, 4.47117E+00
 2.22945E+01, 7.18994E+01, 4.68723E+00
 2.25422E+01, 7.20504E+01, 4.46797E+00
 2.27899E+01, 7.36227E+01, 4.74958E+00
 2.30376E+01, 7.88023E+01, 5.05674E+00
 2.32854E+01, 8.68810E+01, 5.17463E+00
 2.35331E+01, 9.39415E+01, 5.51961E+00
 2.37808E+01, 9.85345E+01, 5.62081E+00
 2.40285E+01, 9.99128E+01, 5.67780E+00
 2.42762E+01, 1.00154E+02, 5.70256E+00
 2.45239E+01, 1.02578E+02, 5.61161E+00
 2.47717E+01, 1.10852E+02, 6.25234E+00
 2.50194E+01, 1.21075E+02, 6.54352E+00
 2.52671E+01, 1.25448E+02, 6.57450E+00
 2.55148E+01, 1.23672E+02, 6.52453E+00
 2.57625E+01, 1.22765E+02, 6.78961E+00
 2.60102E+01, 1.25181E+02, 6.80720E+00
 2.62580E+01, 1.26983E+02, 6.76721E+00
 2.65057E+01, 1.24720E+02, 6.90380E+00
 2.67534E+01, 1.18444E+02, 6.35480E+00
 2.70011E+01, 1.13876E+02, 6.72268E+00
 2.72488E+01, 1.14644E+02, 6.83736E+00
 2.74965E+01, 1.17545E+02, 6.97996E+00
 2.77443E+01, 1.19708E+02, 7.08819E+00
 2.79920E+01, 1.20460E+02, 7.02180E+00
 2.82397E+01, 1.19015E+02, 6.98894E+00
 2.84874E+01, 1.14956E+02, 6.93396E+00
 2.87351E+01, 1.10626E+02, 6.65352E+00
 2.89828E+01, 1.07061E+02, 7.11290E+00
 2.92306E+01, 1.04723E+02, 6.77264E+00
 2.94783E+01, 1.04520E+02, 6.81212E+00
 2.97260E+01, 1.06195E+02, 6.86535E+00
 2.99737E+01, 1.06295E+02, 7.17292E+00
 3.02214E+01, 1.05331E+02, 7.00543E+00
 3.04691E+01, 1.06713E+02, 7.36972E+00
 3.07169E+01, 1.08703E+02, 7.30261E+00
 3.09646E+01, 1.06611E+02, 7.18806E+00
 3.12123E+01, 1.02367E+02, 6.89858E+00
 3.14600E+01, 1.01887E+02, 7.38727E+00
 3.17077E+01, 1.04919E+02, 7.17617E+00
 3.19554E+01, 1.07030E+02, 7.17528E+00
 3.22032E+01, 1.08771E+02, 7.44107E+00
 3.24509E+01, 1.09241E+02, 7.77478E+00
 3.26986E+01, 1.07310E+02, 7.39426E+00
 3.29463E+01, 1.05644E+02, 7.40284E+00
 3.31940E+01, 1.08840E+02, 7.69689E+00
 3.34417E+01, 1.14651E+02, 8.08268E+00
 3.36895E+01, 1.16278E+02, 7.69197E+00
 3.39372E+01, 1.13170E+02, 7.75290E+00
 3.41849E+01, 1.12135E+02, 8.19008E+00
 3.44326E+01, 1.14159E+02, 8.02190E+00
 3.46803E+01, 1.16125E+02, 8.28041E+00
 3.49280E+01, 1.17850E+02, 8.07799E+00
 3.51758E+01, 1.16624E+02, 8.27600E+00
 3.54235E+01, 1.11427E+02, 8.07696E+00
 3.56712E+01, 1.02951E+02, 7.57593E+00
 3.59189E+01, 9.77251E+01, 7.75333E+00
 3.61666E+01, 9.93262E+01, 7.76141E+00
 3.64143E+01, 1.02830E+02, 7.75878E+00
 3.66621E+01, 1.04646E+02, 8.41211E+00
 3.69098E+01, 1.03806E+02, 7.91510E+00
 3.71575E+01, 1.00051E+02, 8.10147E+00
 3.74052E+01, 9.48831E+01, 7.70303E+00
 3.76529E+01, 9.32229E+01, 8.20150E+00
 3.79006E+01, 9.64655E+01, 8.27858E+00
 3.81484E+01, 9.66859E+01, 7.87689E+00
 3.83961E+01, 9.36246E+01, 7.69630E+00
 3.86438E+01, 9.33585E+01, 8.22216E+00
 3.88915E+01, 9.28024E+01, 8.31733E+00
 3.91392E+01, 8.99953E+01, 7.96436E+00
 3.93869E+01, 9.11170E+01, 8.25431E+00
 3.96347E+01, 9.65419E+01, 8.86740E+00
 3.98824E+01, 9.78727E+01, 8.48517E+00
 4.01301E+01, 9.48867E+01, 8.00151E+00
 4.03778E+01, 9.39322E+01, 8.49321E+00
 4.06255E+01, 9.50978E+01, 8.68414E+00
 4.08732E+01, 9.54083E+01, 8.80264E+00
 4.11210E+01, 9.71453E+01, 8.75380E+00
 4.13687E+01, 1.01608E+02, 8.93532E+00
 4.16164E+01, 1.05959E+02, 9.06297E+00
 4.18641E+01, 1.10738E+02, 9.86998E+00
 4.21118E+01, 1.17693E+02, 9.93301E+00
 4.23595E+01, 1.21744E+02, 9.81980E+00
 4.26073E+01, 1.24794E+02, 1.03273E+01
 4.28550E+01, 1.30726E+02, 1.03463E+01
 4.31027E+01, 1.33409E+02, 1.04243E+01
 4.33504E+01, 1.31774E+02, 1.02437E+01
 4.35981E+01, 1.32123E+02, 1.09534E+01
 4.38458E+01, 1.32331E+02, 1.06253E+01
 4.40936E+01, 1.28680E+02, 1.02359E+01
 4.43413E+01, 1.22518E+02, 9.96940E+00
 4.45890E+01, 1.12599E+02, 1.00099E+01
 4.48367E+01, 1.03318E+02, 8.86280E+00
 4.50844E+01, 9.91077E+01, 9.62109E+00
 4.53321E+01, 9.73234E+01, 8.98918E+00
 4.55799E+01, 9.43700E+01, 9.50708E+00
 4.58276E+01, 8.99962E+01, 8.89618E+00
 4.60753E+01, 7.90907E+01, 8.14142E+00
 4.63230E+01, 6.61920E+01, 7.61545E+00
 4.65707E+01, 5.62707E+01, 6.94014E+00
 4.68184E+01, 4.91079E+01, 6.93649E+00
 4.70662E+01, 4.18230E+01, 6.28209E+00
 4.73139E+01, 3.43218E+01, 6.25076E+00
 4.75616E+01, 2.92450E+01, 5.81643E+00
 4.78093E+01, 2.89271E+01, 5.94444E+00
 4.80570E+01, 2.89735E+01, 5.94552E+00
 4.83047E+01, 2.56908E+01, 5.87275E+00
 4.85525E+01, 2.05726E+01, 4.73161E+00
 4.88002E+01, 1.58447E+01, 4.78146E+00
 4.90479E+01, 1.28727E+01, 4.99097E+00
 4.92956E+01, 1.13812E+01, 4.70589E+00
 4.95433E+01, 1.00222E+01, 4.30052E+00
 4.97910E+01, 1.10427E+01, 4.80817E+00
 5.00388E+01, 1.29681E+01, 4.75896E+00
 5.02865E+01, 1.27754E+01, 4.60637E+00
 5.05342E+01, 1.09571E+01, 5.11893E+00
 5.07819E+01, 8.05085E+00, 4.40869E+00
 5.10296E+01, 6.23279E+00, 4.58701E+00
 5.12773E+01, 5.12327E+00, 4.02009E+00
 5.15251E+01, 2.98145E+00, 4.10716E+00
 5.17728E+01, 7.18139E-01, 4.01162E+00
 5.20205E+01,-2.75141E-02, 3.39324E+00
 5.22682E+01, 1.81325E+00, 4.51519E+00
 5.25159E+01, 5.68151E+00, 4.96467E+00
 5.27636E+01, 8.91080E+00, 4.98299E+00
 5.30113E+01, 1.00041E+01, 4.91384E+00
 5.32591E+01, 7.45203E+00, 4.16058E+00
 5.35068E+01, 4.53949E+00, 4.19852E+00
 5.37545E+01, 3.22260E+00, 4.38732E+00
 5.40022E+01, 1.39584E+00, 3.65525E+00
 5.42499E+01,-2.69643E-01, 3.38766E+00
 5.44976E+01, 7.40379E-01, 4.39773E+00
 5.47454E+01, 3.27826E+00, 4.95083E+00
 5.49931E+01, 3.45068E+00, 4.08878E+00
 5.52408E+01, 1.51572E+00, 4.56057E+00
 5.54885E+01, 1.01469E+00, 3.64469E+00
 5.57362E+01, 1.91404E+00, 4.55150E+00
 5.59839E+01, 2.30658E+00, 4.35514E+00
 5.62317E+01, 1.71151E+00, 4.60222E+00
 5.64794E+01, 1.11833E+00, 4.47182E+00
 5.67271E+01, 3.25035E-01, 3.70284E+00
 5.69748E+01,-5.50674E-01, 4.11523E+00
 5.72225E+01,-5.55251E-01, 3.94242E+00
 5.74702E+01, 2.18200E+00, 5.54603E+00
 5.77180E+01, 5.92931E+00, 4.82568E+00
 5.79657E+01, 5.32174E+00, 4.51047E+00
 5.82134E+01, 2.74931E+00, 4.84141E+00
 5.84611E+01, 1.53842E+00, 4.61902E+00
 5.87088E+01, 1.36651E+00, 4.33878E+00
 5.89565E+01,-4.98138E-01, 4.18844E+00
 5.92043E+01,-3.53335E+00, 4.05607E+00
 5.94520E+01,-3.55901E+00, 4.57480E+00
 5.96997E+01,-2.14249E+00, 3.87682E+00
 5.99474E+01,-1.16307E+00, 5.03003E+00
 6.01951E+01, 1.69282E-01, 4.48497E+00
 6.04428E+01, 1.31859E+00, 4.86651E+00
 6.06906E+01, 2.04361E-01, 3.79783E+00
 6.09383E+01,-8.15246E-01, 3.95670E+00
 6.11860E+01, 2.17601E+00, 5.56784E+00
 6.14337E+01, 5.27275E+00, 5.42979E+00
 6.16814E+01, 3.49470E+00, 3.82623E+00
 6.19291E+01,-7.24130E-01, 4.14118E+00
 6.21769E+01,-2.50790E+00, 3.74486E+00
 6.24246E+01,-9.01092E-01, 5.06639E+00
 6.26723E+01,-3.10112E-01, 4.24678E+00
 6.29200E+01,-3.91395E+00, 3.92114E+00
 6.31677E+01,-5.30235E+00, 4.11174E+00
 6.34154E+01,-2.36421E+00, 4.80363E+00
 6.36632E+01, 1.48355E+00, 6.10012E+00
 6.39109E+01, 4.38578E+00, 5.56821E+00
 6.41586E+01, 4.28552E+00, 4.15647E+00
 6.44063E+01, 1.73400E+00, 4.86188E+00
 6.46540E+01, 1.56043E+00, 5.22983E+00
 6.49017E+01, 3.08912E+00, 5.02625E+00
 6.51495E+01, 3.10988E+00, 5.41033E+00
 6.53972E+01, 2.11781E-01, 4.36640E+00
 6.56449E+01,-2.64862E+00, 3.34698E+00
 6.58926E+01,-1.49896E+00, 4.77366E+00
 6.61403E+01,-9.83342E-01, 4.73784E+00
 6.63880E+01,-3.13123E+00, 4.49790E+00
 6.66358E+01,-2.58218E+00, 5.07473E+00
 6.68835E+01, 1.61215E+00, 5.00342E+00
 6.71312E+01, 5.20726E+00, 5.19366E+00
 6.73789E+01, 6.59575E+00, 5.61304E+00
 6.76266E+01, 6.99366E+00, 5.09731E+00
 6.78743E+01, 4.30039E+00, 4.89575E+00
 6.81221E+01,-5.56416E-01, 3.76974E+00
 6.83698E+01,-3.21986E+00, 4.91930E+00
 6.86175E+01,-1.38090E+00, 4.92346E+00
 6.88652E+01, 1.94560E+00, 4.53414E+00
 6.91129E+01, 2.66080E+00, 4.51912E+00
 6.93606E+01, 2.73734E+00, 5.64514E+00
 6.96084E+01, 3.19399E+00, 5.20541E+00
 6.98561E+01, 2.04843E+00, 5.41952E+00
 7.01038E+01,-1.13234E+00, 4.92537E+00
 7.03515E+01,-2.34649E+00, 4.12924E+00
 7.05992E+01,-1.33060E+00, 4.74332E+00
 7.08469E+01,-2.18679E+00, 4.15147E+00
 7.10947E+01,-5.10517E+00, 3.72763E+00
 7.13424E+01,-4.63721E+00, 4.75869E+00
 7.15901E+01, 1.79991E+00, 5.22700E+00
 7.18378E+01, 4.85800E+00, 4.75001E+00
 7.20855E+01, 1.54112E-01, 4.31439E+00
 7.23332E+01,-5.36230E+00, 4.64355E+00
 7.25810E+01,-8.81816E+00, 4.10281E+00
 7.28287E+01,-1.00211E+01, 4.01958E+00
 7.30764E+01,-7.24447E+00, 5.14203E+00
 7.33241E+01, 8.63476E-02, 3.89832E+00
 7.35718E+01, 1.38801E+00, 5.09551E+00
 7.38195E+01, 1.73677E+00, 5.68329E+00
 7.40673E+01,-9.33106E-01, 4.05597E+00
 7.43150E+01,-2.96117E+00, 4.06782E+00
 7.45627E+01,-1.29412E+00, 4.81609E+00
 7.48104E+01, 6.80412E-01, 5.13759E+00
 7.50581E+01,-1.13020E-01, 4.25707E+00
 7.53058E+01,-1.16730E+00, 4.46143E+00
 7.55536E+01, 8.43146E-01, 5.68818E+00
 7.58013E+01, 2.76115E+00, 5.07410E+00
 7.60490E+01, 2.92643E+00, 4.11644E+00
 7.62967E+01, 2.14627E+00, 5.77873E+00
 7.65444E+01,-1.01682E+00, 4.81917E+00
 7.67921E+01,-5.11317E+00, 3.01010E+00
 7.70399E+01,-6.47989E+00, 4.51207E+00
 7.72876E+01,-5.95126E+00, 4.62181E+00
 7.75353E+01,-3.61922E+00, 6.97155E+00
 7.77830E+01,-2.45963E+00, 5.72628E+00
 7.80307E+01,-4.31167E+00, 3.34419E+00
 7.82784E+01,-5.24836E+00, 6.12040E+00
 7.85262E+01,-3.93571E+00, 6.10933E+00
 7.87739E+01,-4.23494E+00, 4.59281E+00
 7.90216E+01,-5.25755E+00, 4.50819E+00
 7.92693E+01,-4.69080E+00, 5.65054E+00
 7.95170E+01,-4.61136E+00, 8.17180E+00
 7.97647E+01,-5.14710E+00, 3.74745E+00
 8.00125E+01,-5.58420E+00, 5.20902E+00
 8.02602E+01,-4.30772E+00, 5.03702E+00
 8.05079E+01,-3.72518E+00, 9.01057E+00
 8.07556E+01,-4.99921E+00, 5.55734E+00
 8.10033E+01,-5.53027E+00, 1.72067E+00
 8.12510E+01,-5.08520E+00, 5.53020E+00
 8.14988E+01,-4.96922E+00, 9.82214E+00
 8.17465E+01,-7.23439E+00, 3.48525E+00
 8.19942E+01,-7.71878E+00, 6.91360E+00
 8.22419E+01,-5.46391E+00, 6.44666E+00
 8.24896E+01,-1.96124E+00, 1.19084E+01
 8.27373E+01, 2.15362E+00, 1.18323E+01
 8.29851E+01, 1.55156E+00, 1.07465E+01
 8.32328E+01,-5.45751E+00, 8.99945E-02
 8.34805E+01,-1.10695E+01, 8.95522E-02
 8.37282E+01,-9.72222E+00, 8.88463E-02
