# == pyFAI calibration ==
# SplineFile: None
# PixelSize: 7.900e-05, 7.900e-05 m
# PONI: 1.411e-01, 1.028e-01 m
# Distance Sample to Detector: 0.252389920345 m
# Rotations: 0.001947 0.002954 0.000003 rad
# 
# == Fit2d calibration ==
# Distance Sample-beamCenter: 252.392 mm
# Center: x=1295.273, y=1795.185 pix
# Tilt: 0.203 deg  TiltPlanRot: 123.397 deg
# 
# Wavelength: 8.603e-11
# Polarization factor: 0.99
# Normalization factor: None
#
# 2th_deg	 I
3.335335913E+00  6.957985352E+03
3.345515043E+00  6.965096191E+03
3.355694174E+00  6.978717285E+03
3.365873304E+00  6.995838867E+03
3.376052435E+00  6.970556641E+03
3.386231566E+00  7.003743164E+03
3.396410696E+00  7.062392090E+03
3.406589827E+00  7.089727051E+03
3.416768958E+00  7.126225586E+03
3.426948088E+00  7.126665527E+03
3.437127219E+00  7.087719727E+03
3.447306349E+00  7.079134277E+03
3.457485480E+00  7.097485840E+03
3.467664611E+00  7.144518555E+03
3.477843741E+00  7.199409668E+03
3.488022872E+00  7.220458008E+03
3.498202002E+00  7.209479980E+03
3.508381133E+00  7.197261230E+03
3.518560264E+00  7.206381836E+03
3.528739394E+00  7.205465820E+03
3.538918525E+00  7.225753418E+03
3.549097656E+00  7.230429688E+03
3.559276786E+00  7.249370605E+03
3.569455917E+00  7.279793457E+03
3.579635047E+00  7.277203125E+03
3.589814178E+00  7.268465332E+03
3.599993309E+00  7.267037598E+03
3.610172439E+00  7.276950684E+03
3.620351570E+00  7.307389160E+03
3.630530701E+00  7.325808105E+03
3.640709831E+00  7.317311523E+03
3.650888962E+00  7.331837402E+03
3.661068092E+00  7.363086426E+03
3.671247223E+00  7.395740234E+03
3.681426354E+00  7.422678223E+03
3.691605484E+00  7.437235352E+03
3.701784615E+00  7.440256836E+03
3.711963745E+00  7.433100098E+03
3.722142876E+00  7.443139160E+03
3.732322007E+00  7.464121582E+03
3.742501137E+00  7.473526855E+03
3.752680268E+00  7.467741699E+03
3.762859399E+00  7.469118652E+03
3.773038529E+00  7.477412598E+03
3.783217660E+00  7.479985840E+03
3.793396790E+00  7.488916504E+03
3.803575921E+00  7.498588379E+03
3.813755052E+00  7.498230469E+03
3.823934182E+00  7.481653809E+03
3.834113313E+00  7.480939453E+03
3.844292444E+00  7.473844238E+03
3.854471574E+00  7.484582520E+03
3.864650705E+00  7.500201172E+03
3.874829835E+00  7.529407715E+03
3.885008966E+00  7.521083008E+03
3.895188097E+00  7.511215332E+03
3.905367227E+00  7.493926270E+03
3.915546358E+00  7.489229492E+03
3.925725488E+00  7.492518555E+03
3.935904619E+00  7.497194336E+03
3.946083750E+00  7.501919922E+03
3.956262880E+00  7.499875000E+03
3.966442011E+00  7.509637207E+03
3.976621142E+00  7.529291992E+03
3.986800272E+00  7.545993164E+03
3.996979403E+00  7.561305176E+03
4.007158533E+00  7.555043457E+03
4.017337664E+00  7.545341309E+03
4.027516795E+00  7.543291016E+03
4.037695925E+00  7.540342773E+03
4.047875056E+00  7.531488281E+03
4.058054187E+00  7.528565430E+03
4.068233317E+00  7.516242188E+03
4.078412448E+00  7.507898438E+03
4.088591578E+00  7.509757812E+03
4.098770709E+00  7.512165039E+03
4.108949840E+00  7.522545410E+03
4.119128970E+00  7.523237305E+03
4.129308101E+00  7.533847656E+03
4.139487231E+00  7.554819824E+03
4.149666362E+00  7.561197754E+03
4.159845493E+00  7.552334961E+03
4.170024623E+00  7.553796387E+03
4.180203754E+00  7.556562012E+03
4.190382885E+00  7.550885254E+03
4.200562015E+00  7.546490234E+03
4.210741146E+00  7.524973633E+03
4.220920276E+00  7.524168457E+03
4.231099407E+00  7.526193359E+03
4.241278538E+00  7.530000488E+03
4.251457668E+00  7.527052246E+03
4.261636799E+00  7.522950195E+03
4.271815930E+00  7.532886230E+03
4.281995060E+00  7.545220215E+03
4.292174191E+00  7.568291504E+03
4.302353321E+00  7.567548340E+03
4.312532452E+00  7.551238281E+03
4.322711583E+00  7.531657715E+03
4.332890713E+00  7.532161621E+03
4.343069844E+00  7.539848145E+03
4.353248974E+00  7.540930176E+03
4.363428105E+00  7.535368164E+03
4.373607236E+00  7.523693848E+03
4.383786366E+00  7.525663086E+03
4.393965497E+00  7.534006348E+03
4.404144628E+00  7.530907715E+03
4.414323758E+00  7.514993652E+03
4.424502889E+00  7.499879883E+03
4.434682019E+00  7.516930664E+03
4.444861150E+00  7.516642090E+03
4.455040281E+00  7.515906250E+03
4.465219411E+00  7.506714355E+03
4.475398542E+00  7.508153809E+03
4.485577673E+00  7.496081543E+03
4.495756803E+00  7.488901855E+03
4.505935934E+00  7.492898438E+03
4.516115064E+00  7.499010742E+03
4.526294195E+00  7.493487793E+03
4.536473326E+00  7.491929688E+03
4.546652456E+00  7.500768555E+03
4.556831587E+00  7.505253906E+03
4.567010717E+00  7.503532227E+03
4.577189848E+00  7.488580566E+03
4.587368979E+00  7.471507812E+03
4.597548109E+00  7.459325195E+03
4.607727240E+00  7.459802734E+03
4.617906371E+00  7.463777344E+03
4.628085501E+00  7.461304688E+03
4.638264632E+00  7.449968262E+03
4.648443762E+00  7.444276367E+03
4.658622893E+00  7.446607910E+03
4.668802024E+00  7.455498047E+03
4.678981154E+00  7.458532227E+03
4.689160285E+00  7.455747559E+03
4.699339415E+00  7.450774902E+03
4.709518546E+00  7.448484863E+03
4.719697677E+00  7.440597168E+03
4.729876807E+00  7.434467773E+03
4.740055938E+00  7.429598633E+03
4.750235069E+00  7.427612793E+03
4.760414199E+00  7.424810059E+03
4.770593330E+00  7.434060059E+03
4.780772460E+00  7.440965332E+03
4.790951591E+00  7.441128906E+03
4.801130722E+00  7.437393555E+03
4.811309852E+00  7.442202148E+03
4.821488983E+00  7.447751465E+03
4.831668114E+00  7.451810547E+03
4.841847244E+00  7.453469238E+03
4.852026375E+00  7.450249512E+03
4.862205505E+00  7.451536133E+03
4.872384636E+00  7.459773438E+03
4.882563767E+00  7.460787598E+03
4.892742897E+00  7.457134766E+03
4.902922028E+00  7.453797363E+03
4.913101158E+00  7.461329102E+03
4.923280289E+00  7.462937012E+03
4.933459420E+00  7.462339355E+03
4.943638550E+00  7.458527832E+03
4.953817681E+00  7.459417480E+03
4.963996812E+00  7.471030762E+03
4.974175942E+00  7.472295898E+03
4.984355073E+00  7.469956055E+03
4.994534203E+00  7.461521484E+03
5.004713334E+00  7.453610840E+03
5.014892465E+00  7.441279785E+03
5.025071595E+00  7.432547852E+03
5.035250726E+00  7.434902344E+03
5.045429857E+00  7.443574707E+03
5.055608987E+00  7.453231934E+03
5.065788118E+00  7.453415039E+03
5.075967248E+00  7.448857422E+03
5.086146379E+00  7.449083984E+03
5.096325510E+00  7.440094727E+03
5.106504640E+00  7.437030273E+03
5.116683771E+00  7.443946777E+03
5.126862901E+00  7.451397461E+03
5.137042032E+00  7.446778809E+03
5.147221163E+00  7.435838867E+03
5.157400293E+00  7.430475586E+03
5.167579424E+00  7.426983887E+03
5.177758555E+00  7.430182129E+03
5.187937685E+00  7.435443848E+03
5.198116816E+00  7.434412109E+03
5.208295946E+00  7.420824707E+03
5.218475077E+00  7.414783203E+03
5.228654208E+00  7.415209473E+03
5.238833338E+00  7.417493164E+03
5.249012469E+00  7.413421387E+03
5.259191600E+00  7.403611816E+03
5.269370730E+00  7.389705078E+03
5.279549861E+00  7.382862305E+03
5.289728991E+00  7.375825195E+03
5.299908122E+00  7.363768555E+03
5.310087253E+00  7.359969238E+03
5.320266383E+00  7.362904785E+03
5.330445514E+00  7.365604492E+03
5.340624644E+00  7.361670898E+03
5.350803775E+00  7.352057129E+03
5.360982906E+00  7.334645508E+03
5.371162036E+00  7.324764648E+03
5.381341167E+00  7.321906250E+03
5.391520298E+00  7.320119141E+03
5.401699428E+00  7.316171875E+03
5.411878559E+00  7.312651855E+03
5.422057689E+00  7.304009766E+03
5.432236820E+00  7.295069336E+03
5.442415951E+00  7.290180176E+03
5.452595081E+00  7.280632324E+03
5.462774212E+00  7.273061523E+03
5.472953343E+00  7.264114746E+03
5.483132473E+00  7.260031738E+03
5.493311604E+00  7.259214355E+03
5.503490734E+00  7.255422852E+03
5.513669865E+00  7.248683594E+03
5.523848996E+00  7.242164551E+03
5.534028126E+00  7.237888672E+03
5.544207257E+00  7.236772949E+03
5.554386387E+00  7.232641113E+03
5.564565518E+00  7.222170898E+03
5.574744649E+00  7.215851074E+03
5.584923779E+00  7.216213379E+03
5.595102910E+00  7.218992188E+03
5.605282041E+00  7.216544434E+03
5.615461171E+00  7.208973633E+03
5.625640302E+00  7.197764648E+03
5.635819432E+00  7.187426270E+03
5.645998563E+00  7.182369629E+03
5.656177694E+00  7.180545410E+03
5.666356824E+00  7.174564453E+03
5.676535955E+00  7.164866211E+03
5.686715086E+00  7.157763672E+03
5.696894216E+00  7.153867188E+03
5.707073347E+00  7.151053223E+03
5.717252477E+00  7.143254883E+03
5.727431608E+00  7.128231445E+03
5.737610739E+00  7.116932617E+03
5.747789869E+00  7.108917969E+03
5.757969000E+00  7.100352051E+03
5.768148130E+00  7.089559082E+03
5.778327261E+00  7.079840332E+03
5.788506392E+00  7.077956055E+03
5.798685522E+00  7.077197754E+03
5.808864653E+00  7.081175781E+03
5.819043784E+00  7.082541504E+03
5.829222914E+00  7.080886230E+03
5.839402045E+00  7.072984863E+03
5.849581175E+00  7.065794922E+03
5.859760306E+00  7.058777344E+03
5.869939437E+00  7.051112793E+03
5.880118567E+00  7.039984375E+03
5.890297698E+00  7.034289062E+03
5.900476829E+00  7.033831543E+03
5.910655959E+00  7.029069824E+03
5.920835090E+00  7.017376953E+03
5.931014220E+00  7.011322754E+03
5.941193351E+00  7.014792969E+03
5.951372482E+00  7.014826172E+03
5.961551612E+00  7.010296875E+03
5.971730743E+00  7.003589355E+03
5.981909873E+00  7.000722656E+03
5.992089004E+00  6.993250000E+03
6.002268135E+00  6.988233887E+03
6.012447265E+00  6.981000488E+03
6.022626396E+00  6.976046875E+03
6.032805527E+00  6.967647949E+03
6.042984657E+00  6.955587402E+03
6.053163788E+00  6.940190430E+03
6.063342918E+00  6.931904785E+03
6.073522049E+00  6.929935059E+03
6.083701180E+00  6.925657715E+03
6.093880310E+00  6.920149902E+03
6.104059441E+00  6.913375977E+03
6.114238572E+00  6.908358887E+03
6.124417702E+00  6.904383301E+03
6.134596833E+00  6.906295898E+03
6.144775963E+00  6.905410645E+03
6.154955094E+00  6.898929688E+03
6.165134225E+00  6.897523926E+03
6.175313355E+00  6.902901367E+03
6.185492486E+00  6.906423828E+03
6.195671616E+00  6.899669922E+03
6.205850747E+00  6.887726074E+03
6.216029878E+00  6.878709961E+03
6.226209008E+00  6.877355469E+03
6.236388139E+00  6.876573242E+03
6.246567270E+00  6.870518555E+03
6.256746400E+00  6.857489746E+03
6.266925531E+00  6.850820312E+03
6.277104661E+00  6.848585449E+03
6.287283792E+00  6.843811523E+03
6.297462923E+00  6.843216797E+03
6.307642053E+00  6.838195801E+03
6.317821184E+00  6.829898438E+03
6.328000315E+00  6.819223145E+03
6.338179445E+00  6.809328125E+03
6.348358576E+00  6.798728516E+03
6.358537706E+00  6.796729004E+03
6.368716837E+00  6.800053223E+03
6.378895968E+00  6.798755859E+03
6.389075098E+00  6.794921875E+03
6.399254229E+00  6.788194336E+03
6.409433359E+00  6.774886230E+03
6.419612490E+00  6.765362305E+03
6.429791621E+00  6.762198730E+03
6.439970751E+00  6.756097656E+03
6.450149882E+00  6.751921387E+03
6.460329013E+00  6.747311035E+03
6.470508143E+00  6.733166992E+03
6.480687274E+00  6.719426270E+03
6.490866404E+00  6.715314453E+03
6.501045535E+00  6.725467285E+03
6.511224666E+00  6.727024414E+03
6.521403796E+00  6.717142090E+03
6.531582927E+00  6.707584961E+03
6.541762058E+00  6.699954102E+03
6.551941188E+00  6.693858398E+03
6.562120319E+00  6.680310059E+03
6.572299449E+00  6.668229980E+03
6.582478580E+00  6.659547852E+03
6.592657711E+00  6.652907715E+03
6.602836841E+00  6.646230469E+03
6.613015972E+00  6.638098633E+03
6.623195102E+00  6.629432129E+03
6.633374233E+00  6.624616699E+03
6.643553364E+00  6.622106445E+03
6.653732494E+00  6.619311523E+03
6.663911625E+00  6.612495117E+03
6.674090756E+00  6.605128906E+03
6.684269886E+00  6.599208984E+03
6.694449017E+00  6.593297852E+03
6.704628147E+00  6.583800293E+03
6.714807278E+00  6.572208008E+03
6.724986409E+00  6.564411133E+03
6.735165539E+00  6.563918945E+03
6.745344670E+00  6.552631348E+03
6.755523800E+00  6.537530273E+03
6.765702931E+00  6.524665039E+03
6.775882062E+00  6.518995117E+03
6.786061192E+00  6.515007324E+03
6.796240323E+00  6.509587891E+03
6.806419454E+00  6.507467285E+03
6.816598584E+00  6.505307129E+03
6.826777715E+00  6.499024414E+03
6.836956845E+00  6.491327148E+03
6.847135976E+00  6.489808594E+03
6.857315107E+00  6.487544922E+03
6.867494237E+00  6.481651855E+03
6.877673368E+00  6.472507812E+03
6.887852499E+00  6.465321289E+03
6.898031629E+00  6.455273926E+03
6.908210760E+00  6.439665527E+03
6.918389890E+00  6.418698242E+03
6.928569021E+00  6.407816406E+03
6.938748152E+00  6.407859375E+03
6.948927282E+00  6.408476562E+03
6.959106413E+00  6.401407227E+03
6.969285543E+00  6.395077637E+03
6.979464674E+00  6.396165527E+03
6.989643805E+00  6.395997070E+03
6.999822935E+00  6.389414062E+03
7.010002066E+00  6.379363281E+03
7.020181197E+00  6.372877441E+03
7.030360327E+00  6.368756836E+03
7.040539458E+00  6.362911621E+03
7.050718588E+00  6.350888672E+03
7.060897719E+00  6.343154297E+03
7.071076850E+00  6.337772461E+03
7.081255980E+00  6.333462891E+03
7.091435111E+00  6.327525879E+03
7.101614242E+00  6.321482910E+03
7.111793372E+00  6.313941895E+03
7.121972503E+00  6.305864746E+03
7.132151633E+00  6.296599121E+03
7.142330764E+00  6.290144043E+03
7.152509895E+00  6.283786133E+03
7.162689025E+00  6.272845215E+03
7.172868156E+00  6.260102539E+03
7.183047286E+00  6.252763184E+03
7.193226417E+00  6.243759766E+03
7.203405548E+00  6.236139648E+03
7.213584678E+00  6.233108887E+03
7.223763809E+00  6.228179688E+03
7.233942940E+00  6.219518555E+03
7.244122070E+00  6.214000488E+03
7.254301201E+00  6.207382812E+03
7.264480331E+00  6.197930176E+03
7.274659462E+00  6.197860352E+03
7.284838593E+00  6.199585938E+03
7.295017723E+00  6.193000977E+03
7.305196854E+00  6.183005859E+03
7.315375985E+00  6.177181152E+03
7.325555115E+00  6.169065918E+03
7.335734246E+00  6.162645508E+03
7.345913376E+00  6.160160645E+03
7.356092507E+00  6.151937500E+03
7.366271638E+00  6.142686523E+03
7.376450768E+00  6.136112793E+03
7.386629899E+00  6.127069336E+03
7.396809029E+00  6.117681152E+03
7.406988160E+00  6.112500977E+03
7.417167291E+00  6.108896973E+03
7.427346421E+00  6.102713379E+03
7.437525552E+00  6.095137207E+03
7.447704683E+00  6.085522461E+03
7.457883813E+00  6.077708984E+03
7.468062944E+00  6.070406250E+03
7.478242074E+00  6.062278809E+03
7.488421205E+00  6.052157715E+03
7.498600336E+00  6.039686035E+03
7.508779466E+00  6.031750000E+03
7.518958597E+00  6.027233887E+03
7.529137728E+00  6.021992188E+03
7.539316858E+00  6.013727539E+03
7.549495989E+00  6.004368164E+03
7.559675119E+00  5.993006348E+03
7.569854250E+00  5.980194824E+03
7.580033381E+00  5.970110840E+03
7.590212511E+00  5.967870117E+03
7.600391642E+00  5.964763184E+03
7.610570772E+00  5.956604980E+03
7.620749903E+00  5.952641113E+03
7.630929034E+00  5.949797363E+03
7.641108164E+00  5.945088867E+03
7.651287295E+00  5.938934082E+03
7.661466426E+00  5.935186035E+03
7.671645556E+00  5.928348633E+03
7.681824687E+00  5.924000000E+03
7.692003817E+00  5.920764160E+03
7.702182948E+00  5.914995605E+03
7.712362079E+00  5.902948242E+03
7.722541209E+00  5.887921387E+03
7.732720340E+00  5.876351562E+03
7.742899471E+00  5.867944336E+03
7.753078601E+00  5.862629883E+03
7.763257732E+00  5.856283203E+03
7.773436862E+00  5.851748047E+03
7.783615993E+00  5.845985352E+03
7.793795124E+00  5.834608398E+03
7.803974254E+00  5.821389648E+03
7.814153385E+00  5.811674316E+03
7.824332515E+00  5.806473633E+03
7.834511646E+00  5.802296387E+03
7.844690777E+00  5.797424316E+03
7.854869907E+00  5.789347656E+03
7.865049038E+00  5.778724121E+03
7.875228169E+00  5.769941895E+03
7.885407299E+00  5.765014160E+03
7.895586430E+00  5.759393066E+03
7.905765560E+00  5.751957031E+03
7.915944691E+00  5.747495117E+03
7.926123822E+00  5.737744629E+03
7.936302952E+00  5.727493652E+03
7.946482083E+00  5.720833496E+03
7.956661214E+00  5.712456055E+03
7.966840344E+00  5.708027832E+03
7.977019475E+00  5.703270996E+03
7.987198605E+00  5.698668457E+03
7.997377736E+00  5.690343750E+03
8.007556867E+00  5.679652832E+03
8.017735997E+00  5.672667969E+03
8.027915128E+00  5.667591797E+03
8.038094258E+00  5.658006348E+03
8.048273389E+00  5.647664062E+03
8.058452520E+00  5.637624023E+03
8.068631650E+00  5.630764648E+03
8.078810781E+00  5.621673828E+03
8.088989912E+00  5.610107422E+03
8.099169042E+00  5.596996094E+03
8.109348173E+00  5.588742676E+03
8.119527303E+00  5.585143555E+03
8.129706434E+00  5.580999023E+03
8.139885565E+00  5.575728027E+03
8.150064695E+00  5.571204590E+03
8.160243826E+00  5.562597168E+03
8.170422957E+00  5.553498535E+03
8.180602087E+00  5.548882324E+03
8.190781218E+00  5.545464844E+03
8.200960348E+00  5.539940430E+03
8.211139479E+00  5.534281738E+03
8.221318610E+00  5.527635742E+03
8.231497740E+00  5.520309082E+03
8.241676871E+00  5.508329590E+03
8.251856001E+00  5.497503418E+03
8.262035132E+00  5.485101562E+03
8.272214263E+00  5.477540039E+03
8.282393393E+00  5.467918945E+03
8.292572524E+00  5.462810059E+03
8.302751655E+00  5.455314941E+03
8.312930785E+00  5.448793945E+03
8.323109916E+00  5.441214355E+03
8.333289046E+00  5.434191406E+03
8.343468177E+00  5.430723145E+03
8.353647308E+00  5.428055176E+03
8.363826438E+00  5.419981445E+03
8.374005569E+00  5.409202637E+03
8.384184700E+00  5.400446289E+03
8.394363830E+00  5.392286133E+03
8.404542961E+00  5.382615234E+03
8.414722091E+00  5.373604492E+03
8.424901222E+00  5.369865723E+03
8.435080353E+00  5.367607910E+03
8.445259483E+00  5.363527832E+03
8.455438614E+00  5.357497070E+03
8.465617744E+00  5.346840332E+03
8.475796875E+00  5.341378906E+03
8.485976006E+00  5.337620117E+03
8.496155136E+00  5.329934082E+03
8.506334267E+00  5.323043457E+03
8.516513398E+00  5.318945801E+03
8.526692528E+00  5.312597168E+03
8.536871659E+00  5.304977539E+03
8.547050789E+00  5.297948730E+03
8.557229920E+00  5.291586426E+03
8.567409051E+00  5.282864258E+03
8.577588181E+00  5.272687012E+03
8.587767312E+00  5.260301758E+03
8.597946443E+00  5.255168945E+03
8.608125573E+00  5.250393555E+03
8.618304704E+00  5.243308594E+03
8.628483834E+00  5.232185547E+03
8.638662965E+00  5.222804199E+03
8.648842096E+00  5.213353027E+03
8.659021226E+00  5.201812500E+03
8.669200357E+00  5.194607910E+03
8.679379487E+00  5.192455078E+03
8.689558618E+00  5.189804199E+03
8.699737749E+00  5.181653320E+03
8.709916879E+00  5.174272949E+03
8.720096010E+00  5.165600586E+03
8.730275141E+00  5.155529785E+03
8.740454271E+00  5.149759277E+03
8.750633402E+00  5.145911621E+03
8.760812532E+00  5.135319824E+03
8.770991663E+00  5.123894043E+03
8.781170794E+00  5.117942383E+03
8.791349924E+00  5.111263672E+03
8.801529055E+00  5.102292969E+03
8.811708185E+00  5.095934570E+03
8.821887316E+00  5.093561523E+03
8.832066447E+00  5.090105957E+03
8.842245577E+00  5.085148438E+03
8.852424708E+00  5.077302734E+03
8.862603839E+00  5.071922852E+03
8.872782969E+00  5.068863281E+03
8.882962100E+00  5.064311523E+03
8.893141230E+00  5.054096191E+03
8.903320361E+00  5.041218750E+03
8.913499492E+00  5.031053223E+03
8.923678622E+00  5.025228027E+03
8.933857753E+00  5.018546875E+03
8.944036884E+00  5.009840332E+03
8.954216014E+00  5.001230957E+03
8.964395145E+00  4.992856445E+03
8.974574275E+00  4.984593750E+03
8.984753406E+00  4.977212891E+03
8.994932537E+00  4.974881348E+03
9.005111667E+00  4.972766113E+03
9.015290798E+00  4.967373047E+03
9.025469928E+00  4.960956543E+03
9.035649059E+00  4.952561523E+03
9.045828190E+00  4.942435547E+03
9.056007320E+00  4.931844238E+03
9.066186451E+00  4.925467285E+03
9.076365582E+00  4.915468262E+03
9.086544712E+00  4.904449219E+03
9.096723843E+00  4.897139160E+03
9.106902973E+00  4.892991699E+03
9.117082104E+00  4.886924316E+03
9.127261235E+00  4.877790039E+03
9.137440365E+00  4.871101562E+03
9.147619496E+00  4.867875977E+03
9.157798627E+00  4.862520508E+03
9.167977757E+00  4.856365234E+03
9.178156888E+00  4.850570312E+03
9.188336018E+00  4.845386230E+03
9.198515149E+00  4.839042480E+03
9.208694280E+00  4.832820312E+03
9.218873410E+00  4.825191406E+03
9.229052541E+00  4.816073730E+03
9.239231671E+00  4.806225098E+03
9.249410802E+00  4.802542480E+03
9.259589933E+00  4.797567383E+03
9.269769063E+00  4.791124023E+03
9.279948194E+00  4.783486328E+03
9.290127325E+00  4.779452148E+03
9.300306455E+00  4.771675293E+03
9.310485586E+00  4.762463867E+03
9.320664716E+00  4.755640137E+03
9.330843847E+00  4.749133301E+03
9.341022978E+00  4.739062500E+03
9.351202108E+00  4.727417969E+03
9.361381239E+00  4.719724609E+03
9.371560370E+00  4.718668945E+03
9.381739500E+00  4.718484375E+03
9.391918631E+00  4.714131348E+03
9.402097761E+00  4.706423340E+03
9.412276892E+00  4.698892090E+03
9.422456023E+00  4.694926270E+03
9.432635153E+00  4.691462891E+03
9.442814284E+00  4.683393555E+03
9.452993414E+00  4.674604492E+03
9.463172545E+00  4.669171875E+03
9.473351676E+00  4.666115723E+03
9.483530806E+00  4.658166992E+03
9.493709937E+00  4.646832031E+03
9.503889068E+00  4.638587891E+03
9.514068198E+00  4.632811523E+03
9.524247329E+00  4.624562500E+03
9.534426459E+00  4.619520996E+03
9.544605590E+00  4.614815430E+03
9.554784721E+00  4.607902832E+03
9.564963851E+00  4.601566406E+03
9.575142982E+00  4.597375000E+03
9.585322113E+00  4.592508301E+03
9.595501243E+00  4.585117676E+03
9.605680374E+00  4.576708984E+03
9.615859504E+00  4.570471680E+03
9.626038635E+00  4.565872070E+03
9.636217766E+00  4.560284668E+03
9.646396896E+00  4.554484863E+03
9.656576027E+00  4.548243652E+03
9.666755157E+00  4.541458984E+03
9.676934288E+00  4.534016602E+03
9.687113419E+00  4.528272949E+03
9.697292549E+00  4.522146973E+03
9.707471680E+00  4.515564941E+03
9.717650811E+00  4.506421387E+03
9.727829941E+00  4.500208984E+03
9.738009072E+00  4.493167480E+03
9.748188202E+00  4.488755371E+03
9.758367333E+00  4.487999512E+03
9.768546464E+00  4.481354004E+03
9.778725594E+00  4.468618652E+03
9.788904725E+00  4.457392578E+03
9.799083856E+00  4.449982910E+03
9.809262986E+00  4.443479492E+03
9.819442117E+00  4.438985352E+03
9.829621247E+00  4.435915527E+03
9.839800378E+00  4.430487305E+03
9.849979509E+00  4.421685547E+03
9.860158639E+00  4.415741699E+03
9.870337770E+00  4.408791504E+03
9.880516900E+00  4.402730469E+03
9.890696031E+00  4.400315918E+03
9.900875162E+00  4.397503906E+03
9.911054292E+00  4.390441895E+03
9.921233423E+00  4.380638672E+03
9.931412554E+00  4.372708984E+03
9.941591684E+00  4.363388672E+03
9.951770815E+00  4.356854492E+03
9.961949945E+00  4.352926758E+03
9.972129076E+00  4.350177734E+03
9.982308207E+00  4.347322754E+03
9.992487337E+00  4.340187500E+03
1.000266647E+01  4.329632812E+03
1.001284560E+01  4.317884766E+03
1.002302473E+01  4.310096191E+03
1.003320386E+01  4.305561523E+03
1.004338299E+01  4.300819824E+03
1.005356212E+01  4.295460938E+03
1.006374125E+01  4.289333984E+03
1.007392038E+01  4.283109375E+03
1.008409951E+01  4.277525391E+03
1.009427864E+01  4.273464355E+03
1.010445777E+01  4.267033691E+03
1.011463690E+01  4.257055176E+03
1.012481604E+01  4.247521973E+03
1.013499517E+01  4.237510254E+03
1.014517430E+01  4.230159668E+03
1.015535343E+01  4.226583008E+03
1.016553256E+01  4.223589844E+03
1.017571169E+01  4.222523926E+03
1.018589082E+01  4.219606445E+03
1.019606995E+01  4.212490723E+03
1.020624908E+01  4.205271973E+03
1.021642821E+01  4.198740234E+03
1.022660734E+01  4.190833496E+03
1.023678647E+01  4.184616699E+03
1.024696560E+01  4.179586426E+03
1.025714473E+01  4.172412109E+03
1.026732386E+01  4.164660156E+03
1.027750299E+01  4.157106445E+03
1.028768213E+01  4.148987305E+03
1.029786126E+01  4.140056641E+03
1.030804039E+01  4.133115723E+03
1.031821952E+01  4.128360840E+03
1.032839865E+01  4.123959473E+03
1.033857778E+01  4.121914551E+03
1.034875691E+01  4.121229492E+03
1.035893604E+01  4.117437500E+03
1.036911517E+01  4.110023438E+03
1.037929430E+01  4.102770020E+03
1.038947343E+01  4.096880859E+03
1.039965256E+01  4.091591797E+03
1.040983169E+01  4.088006348E+03
1.042001082E+01  4.085493896E+03
1.043018995E+01  4.078776611E+03
1.044036908E+01  4.071590088E+03
1.045054822E+01  4.066976074E+03
1.046072735E+01  4.061130371E+03
1.047090648E+01  4.052747803E+03
1.048108561E+01  4.044920410E+03
1.049126474E+01  4.038910889E+03
1.050144387E+01  4.033754883E+03
1.051162300E+01  4.026470703E+03
1.052180213E+01  4.018867676E+03
1.053198126E+01  4.011502441E+03
1.054216039E+01  4.009046875E+03
1.055233952E+01  4.007311279E+03
1.056251865E+01  4.001339844E+03
1.057269778E+01  3.992894287E+03
1.058287691E+01  3.988458984E+03
1.059305604E+01  3.984322510E+03
1.060323517E+01  3.978001221E+03
1.061341431E+01  3.970255371E+03
1.062359344E+01  3.961481934E+03
1.063377257E+01  3.952806641E+03
1.064395170E+01  3.946764404E+03
1.065413083E+01  3.944595947E+03
1.066430996E+01  3.943695312E+03
1.067448909E+01  3.939410400E+03
1.068466822E+01  3.931475830E+03
1.069484735E+01  3.923068115E+03
1.070502648E+01  3.914916748E+03
1.071520561E+01  3.909874023E+03
1.072538474E+01  3.906822998E+03
1.073556387E+01  3.905684570E+03
1.074574300E+01  3.901780518E+03
1.075592213E+01  3.896531494E+03
1.076610126E+01  3.888560791E+03
1.077628039E+01  3.879146240E+03
1.078645953E+01  3.872741455E+03
1.079663866E+01  3.871575928E+03
1.080681779E+01  3.867682617E+03
1.081699692E+01  3.859672363E+03
1.082717605E+01  3.851790039E+03
1.083735518E+01  3.849126953E+03
1.084753431E+01  3.848429443E+03
1.085771344E+01  3.849084473E+03
1.086789257E+01  3.846316162E+03
1.087807170E+01  3.840135498E+03
1.088825083E+01  3.832824707E+03
1.089842996E+01  3.827836914E+03
1.090860909E+01  3.823047607E+03
1.091878822E+01  3.821526855E+03
1.092896735E+01  3.819047607E+03
1.093914648E+01  3.811882324E+03
1.094932562E+01  3.804882568E+03
1.095950475E+01  3.801375244E+03
1.096968388E+01  3.797593750E+03
1.097986301E+01  3.791894531E+03
1.099004214E+01  3.785413086E+03
1.100022127E+01  3.780675293E+03
1.101040040E+01  3.775983643E+03
1.102057953E+01  3.770300293E+03
1.103075866E+01  3.766387939E+03
1.104093779E+01  3.767560791E+03
1.105111692E+01  3.767398682E+03
1.106129605E+01  3.763951416E+03
1.107147518E+01  3.759748047E+03
1.108165431E+01  3.752124023E+03
1.109183344E+01  3.745683350E+03
1.110201257E+01  3.739187500E+03
1.111219171E+01  3.735260742E+03
1.112237084E+01  3.733399414E+03
1.113254997E+01  3.730713623E+03
1.114272910E+01  3.725960205E+03
1.115290823E+01  3.720971191E+03
1.116308736E+01  3.715774658E+03
1.117326649E+01  3.713491455E+03
1.118344562E+01  3.711819580E+03
1.119362475E+01  3.709114258E+03
1.120380388E+01  3.705187256E+03
1.121398301E+01  3.703278564E+03
1.122416214E+01  3.699775391E+03
1.123434127E+01  3.693765869E+03
1.124452040E+01  3.686884033E+03
1.125469953E+01  3.680983887E+03
1.126487866E+01  3.675024902E+03
1.127505780E+01  3.667698975E+03
1.128523693E+01  3.662209473E+03
1.129541606E+01  3.659013428E+03
1.130559519E+01  3.658786377E+03
1.131577432E+01  3.659108887E+03
1.132595345E+01  3.654998047E+03
1.133613258E+01  3.647972168E+03
1.134631171E+01  3.643607178E+03
1.135649084E+01  3.638739746E+03
1.136666997E+01  3.636176025E+03
1.137684910E+01  3.634753174E+03
1.138702823E+01  3.631798828E+03
1.139720736E+01  3.629649902E+03
1.140738649E+01  3.626625244E+03
1.141756562E+01  3.621855225E+03
1.142774475E+01  3.616296143E+03
1.143792389E+01  3.611404785E+03
1.144810302E+01  3.608422119E+03
1.145828215E+01  3.607510498E+03
1.146846128E+01  3.607060059E+03
1.147864041E+01  3.603707764E+03
1.148881954E+01  3.599718018E+03
1.149899867E+01  3.592176758E+03
1.150917780E+01  3.586743896E+03
1.151935693E+01  3.581550537E+03
1.152953606E+01  3.576637207E+03
1.153971519E+01  3.572910889E+03
1.154989432E+01  3.570283447E+03
1.156007345E+01  3.565931641E+03
1.157025258E+01  3.563920166E+03
1.158043171E+01  3.560015137E+03
1.159061084E+01  3.555567627E+03
1.160078998E+01  3.549760010E+03
1.161096911E+01  3.545284180E+03
1.162114824E+01  3.542372070E+03
1.163132737E+01  3.541644531E+03
1.164150650E+01  3.540776367E+03
1.165168563E+01  3.538202637E+03
1.166186476E+01  3.531946045E+03
1.167204389E+01  3.523260986E+03
1.168222302E+01  3.513958740E+03
1.169240215E+01  3.507925781E+03
1.170258128E+01  3.504821777E+03
1.171276041E+01  3.503675781E+03
1.172293954E+01  3.502875732E+03
1.173311867E+01  3.501426025E+03
1.174329780E+01  3.497017822E+03
1.175347693E+01  3.489867920E+03
1.176365606E+01  3.483225830E+03
1.177383520E+01  3.479350586E+03
1.178401433E+01  3.475832031E+03
1.179419346E+01  3.472247559E+03
1.180437259E+01  3.469340820E+03
1.181455172E+01  3.465705322E+03
1.182473085E+01  3.463383789E+03
1.183490998E+01  3.459508301E+03
1.184508911E+01  3.457353027E+03
1.185526824E+01  3.455553955E+03
1.186544737E+01  3.448790039E+03
1.187562650E+01  3.439284668E+03
1.188580563E+01  3.436468750E+03
1.189598476E+01  3.433278076E+03
1.190616389E+01  3.430401367E+03
1.191634302E+01  3.426191895E+03
1.192652215E+01  3.422168701E+03
1.193670129E+01  3.419629395E+03
1.194688042E+01  3.416284668E+03
1.195705955E+01  3.410994385E+03
1.196723868E+01  3.406323486E+03
1.197741781E+01  3.403901855E+03
1.198759694E+01  3.403102783E+03
1.199777607E+01  3.399605469E+03
1.200795520E+01  3.394689453E+03
1.201813433E+01  3.391379150E+03
1.202831346E+01  3.388738037E+03
1.203849259E+01  3.384969727E+03
1.204867172E+01  3.379924805E+03
1.205885085E+01  3.371511230E+03
1.206902998E+01  3.363772461E+03
1.207920911E+01  3.360258057E+03
1.208938824E+01  3.355837891E+03
1.209956738E+01  3.351320557E+03
1.210974651E+01  3.348059326E+03
1.211992564E+01  3.349817627E+03
1.213010477E+01  3.351396973E+03
1.214028390E+01  3.348059082E+03
1.215046303E+01  3.341656250E+03
1.216064216E+01  3.338713623E+03
1.217082129E+01  3.332884277E+03
1.218100042E+01  3.328033691E+03
1.219117955E+01  3.324320557E+03
1.220135868E+01  3.322030029E+03
1.221153781E+01  3.318583740E+03
1.222171694E+01  3.316096680E+03
1.223189607E+01  3.313444580E+03
1.224207520E+01  3.310811279E+03
1.225225433E+01  3.306901123E+03
1.226243347E+01  3.303372559E+03
1.227261260E+01  3.297919189E+03
1.228279173E+01  3.292412109E+03
1.229297086E+01  3.286665039E+03
1.230314999E+01  3.280921875E+03
1.231332912E+01  3.277721924E+03
1.232350825E+01  3.276302979E+03
1.233368738E+01  3.271510254E+03
1.234386651E+01  3.267848633E+03
1.235404564E+01  3.265776367E+03
1.236422477E+01  3.261290283E+03
1.237440390E+01  3.256525391E+03
1.238458303E+01  3.252162842E+03
1.239476216E+01  3.247954346E+03
1.240494129E+01  3.242320312E+03
1.241512042E+01  3.238204834E+03
1.242529956E+01  3.234149902E+03
1.243547869E+01  3.232795654E+03
1.244565782E+01  3.229086426E+03
1.245583695E+01  3.223645264E+03
1.246601608E+01  3.221237793E+03
1.247619521E+01  3.218637207E+03
1.248637434E+01  3.214006592E+03
1.249655347E+01  3.211159424E+03
1.250673260E+01  3.208291992E+03
1.251691173E+01  3.205915527E+03
1.252709086E+01  3.202115479E+03
1.253726999E+01  3.197041992E+03
1.254744912E+01  3.196111084E+03
1.255762825E+01  3.195506348E+03
1.256780738E+01  3.192558350E+03
1.257798651E+01  3.186155762E+03
1.258816565E+01  3.177835693E+03
1.259834478E+01  3.173072021E+03
1.260852391E+01  3.171590332E+03
1.261870304E+01  3.172872803E+03
1.262888217E+01  3.171237061E+03
1.263906130E+01  3.168393066E+03
1.264924043E+01  3.165765869E+03
1.265941956E+01  3.163993408E+03
1.266959869E+01  3.162340088E+03
1.267977782E+01  3.161124512E+03
1.268995695E+01  3.158760254E+03
1.270013608E+01  3.155360840E+03
1.271031521E+01  3.152932373E+03
1.272049434E+01  3.148157227E+03
1.273067347E+01  3.142281982E+03
1.274085260E+01  3.136813965E+03
1.275103173E+01  3.133954346E+03
1.276121087E+01  3.132287598E+03
1.277139000E+01  3.129193359E+03
1.278156913E+01  3.124613281E+03
1.279174826E+01  3.120937256E+03
1.280192739E+01  3.116841064E+03
1.281210652E+01  3.114211914E+03
1.282228565E+01  3.111943115E+03
1.283246478E+01  3.110120850E+03
1.284264391E+01  3.106652832E+03
1.285282304E+01  3.104344238E+03
1.286300217E+01  3.100475830E+03
1.287318130E+01  3.095678711E+03
1.288336043E+01  3.092428711E+03
1.289353956E+01  3.088086670E+03
1.290371869E+01  3.084066406E+03
1.291389782E+01  3.082687744E+03
1.292407696E+01  3.082375732E+03
1.293425609E+01  3.080803955E+03
1.294443522E+01  3.076212891E+03
1.295461435E+01  3.071744873E+03
1.296479348E+01  3.067150879E+03
1.297497261E+01  3.062067383E+03
1.298515174E+01  3.060529785E+03
1.299533087E+01  3.059371582E+03
1.300551000E+01  3.057527100E+03
1.301568913E+01  3.055950928E+03
1.302586826E+01  3.056055420E+03
1.303604739E+01  3.052864502E+03
1.304622652E+01  3.048938721E+03
1.305640565E+01  3.044920898E+03
1.306658478E+01  3.042101562E+03
1.307676391E+01  3.039476807E+03
1.308694305E+01  3.035993408E+03
1.309712218E+01  3.031520752E+03
1.310730131E+01  3.027998779E+03
1.311748044E+01  3.023905029E+03
1.312765957E+01  3.021781006E+03
1.313783870E+01  3.019504639E+03
1.314801783E+01  3.016630859E+03
1.315819696E+01  3.013496094E+03
1.316837609E+01  3.012143799E+03
1.317855522E+01  3.010287354E+03
1.318873435E+01  3.003954834E+03
1.319891348E+01  2.999239014E+03
1.320909261E+01  2.995703369E+03
1.321927174E+01  2.993858887E+03
1.322945087E+01  2.990963135E+03
1.323963000E+01  2.987319824E+03
1.324980914E+01  2.983937500E+03
1.325998827E+01  2.982684326E+03
1.327016740E+01  2.981198486E+03
1.328034653E+01  2.979315430E+03
1.329052566E+01  2.976354248E+03
1.330070479E+01  2.973527344E+03
1.331088392E+01  2.969055420E+03
1.332106305E+01  2.965835938E+03
1.333124218E+01  2.962954346E+03
1.334142131E+01  2.959329834E+03
1.335160044E+01  2.957243652E+03
1.336177957E+01  2.956728027E+03
1.337195870E+01  2.953531494E+03
1.338213783E+01  2.950982666E+03
1.339231696E+01  2.948345459E+03
1.340249609E+01  2.945079834E+03
1.341267523E+01  2.938874756E+03
1.342285436E+01  2.933252441E+03
1.343303349E+01  2.929706543E+03
1.344321262E+01  2.927252441E+03
1.345339175E+01  2.923913818E+03
1.346357088E+01  2.921270996E+03
1.347375001E+01  2.920633789E+03
1.348392914E+01  2.918117676E+03
1.349410827E+01  2.915760986E+03
1.350428740E+01  2.912686035E+03
1.351446653E+01  2.910941895E+03
1.352464566E+01  2.911502930E+03
1.353482479E+01  2.911668945E+03
1.354500392E+01  2.907961670E+03
1.355518305E+01  2.905123779E+03
1.356536218E+01  2.903442139E+03
1.357554132E+01  2.902355469E+03
1.358572045E+01  2.901053467E+03
1.359589958E+01  2.896632324E+03
1.360607871E+01  2.892594727E+03
1.361625784E+01  2.888853271E+03
1.362643697E+01  2.883400146E+03
1.363661610E+01  2.878312988E+03
1.364679523E+01  2.875615234E+03
1.365697436E+01  2.873721924E+03
1.366715349E+01  2.868848145E+03
1.367733262E+01  2.863553711E+03
1.368751175E+01  2.862550293E+03
1.369769088E+01  2.864500977E+03
1.370787001E+01  2.865229004E+03
1.371804914E+01  2.862010010E+03
1.372822827E+01  2.858321045E+03
1.373840741E+01  2.856443848E+03
1.374858654E+01  2.854455322E+03
1.375876567E+01  2.851617188E+03
1.376894480E+01  2.848078613E+03
1.377912393E+01  2.845479980E+03
1.378930306E+01  2.845599854E+03
1.379948219E+01  2.845017090E+03
1.380966132E+01  2.842414551E+03
1.381984045E+01  2.838588867E+03
1.383001958E+01  2.834922119E+03
1.384019871E+01  2.833940430E+03
1.385037784E+01  2.832936279E+03
1.386055697E+01  2.830745117E+03
1.387073610E+01  2.828042969E+03
1.388091523E+01  2.826236084E+03
1.389109436E+01  2.822145508E+03
1.390127349E+01  2.818221924E+03
1.391145263E+01  2.817296387E+03
1.392163176E+01  2.818204590E+03
1.393181089E+01  2.815062500E+03
1.394199002E+01  2.812423340E+03
1.395216915E+01  2.809050781E+03
1.396234828E+01  2.806348877E+03
1.397252741E+01  2.803868896E+03
1.398270654E+01  2.803207520E+03
1.399288567E+01  2.800641602E+03
1.400306480E+01  2.796765137E+03
1.401324393E+01  2.793334961E+03
1.402342306E+01  2.789671387E+03
1.403360219E+01  2.786861328E+03
1.404378132E+01  2.784096436E+03
1.405396045E+01  2.783160156E+03
1.406413958E+01  2.782788330E+03
1.407431872E+01  2.782224121E+03
1.408449785E+01  2.781370361E+03
1.409467698E+01  2.779295166E+03
1.410485611E+01  2.775417969E+03
1.411503524E+01  2.772462891E+03
1.412521437E+01  2.768669678E+03
1.413539350E+01  2.765045410E+03
1.414557263E+01  2.762443359E+03
1.415575176E+01  2.760460938E+03
1.416593089E+01  2.759193604E+03
1.417611002E+01  2.758745605E+03
1.418628915E+01  2.757281006E+03
1.419646828E+01  2.754017578E+03
1.420664741E+01  2.750250977E+03
1.421682654E+01  2.747950439E+03
1.422700567E+01  2.744550049E+03
1.423718481E+01  2.740670898E+03
1.424736394E+01  2.738330078E+03
1.425754307E+01  2.736278809E+03
1.426772220E+01  2.734602051E+03
1.427790133E+01  2.734329590E+03
1.428808046E+01  2.734361084E+03
1.429825959E+01  2.734513916E+03
1.430843872E+01  2.732831787E+03
1.431861785E+01  2.730271729E+03
1.432879698E+01  2.727950439E+03
1.433897611E+01  2.723653320E+03
1.434915524E+01  2.720864502E+03
1.435933437E+01  2.718244629E+03
1.436951350E+01  2.715590820E+03
1.437969263E+01  2.712048828E+03
1.438987176E+01  2.711974854E+03
1.440005090E+01  2.710018799E+03
1.441023003E+01  2.707070068E+03
1.442040916E+01  2.705902588E+03
1.443058829E+01  2.705427002E+03
1.444076742E+01  2.704531250E+03
1.445094655E+01  2.703508301E+03
1.446112568E+01  2.703282959E+03
1.447130481E+01  2.699517090E+03
1.448148394E+01  2.693739502E+03
1.449166307E+01  2.691593750E+03
1.450184220E+01  2.692688721E+03
1.451202133E+01  2.692257812E+03
1.452220046E+01  2.691056885E+03
1.453237959E+01  2.690093262E+03
1.454255872E+01  2.686209229E+03
1.455273785E+01  2.682198730E+03
1.456291699E+01  2.682116455E+03
1.457309612E+01  2.681316895E+03
1.458327525E+01  2.680175781E+03
1.459345438E+01  2.678752441E+03
1.460363351E+01  2.676679688E+03
1.461381264E+01  2.676104004E+03
1.462399177E+01  2.674643555E+03
1.463417090E+01  2.672235352E+03
1.464435003E+01  2.670216553E+03
1.465452916E+01  2.668794434E+03
1.466470829E+01  2.665329102E+03
1.467488742E+01  2.662111816E+03
1.468506655E+01  2.659528564E+03
1.469524568E+01  2.660505371E+03
1.470542481E+01  2.660621094E+03
1.471560394E+01  2.660542236E+03
1.472578308E+01  2.659221680E+03
1.473596221E+01  2.656985107E+03
1.474614134E+01  2.654542236E+03
1.475632047E+01  2.653510254E+03
1.476649960E+01  2.650209473E+03
1.477667873E+01  2.644616699E+03
1.478685786E+01  2.641862793E+03
1.479703699E+01  2.641942139E+03
1.480721612E+01  2.640457275E+03
1.481739525E+01  2.639656250E+03
1.482757438E+01  2.638038574E+03
1.483775351E+01  2.634785645E+03
1.484793264E+01  2.634882080E+03
1.485811177E+01  2.634969727E+03
1.486829090E+01  2.633730713E+03
1.487847003E+01  2.632021973E+03
1.488864916E+01  2.631217285E+03
1.489882830E+01  2.631708008E+03
1.490900743E+01  2.632355713E+03
1.491918656E+01  2.630141602E+03
1.492936569E+01  2.626240723E+03
1.493954482E+01  2.621079102E+03
1.494972395E+01  2.616165527E+03
1.495990308E+01  2.616250244E+03
1.497008221E+01  2.614078369E+03
1.498026134E+01  2.608410645E+03
1.499044047E+01  2.606203613E+03
1.500061960E+01  2.609066650E+03
1.501079873E+01  2.609954834E+03
1.502097786E+01  2.607085449E+03
1.503115699E+01  2.606764160E+03
1.504133612E+01  2.606989014E+03
1.505151525E+01  2.604557129E+03
1.506169439E+01  2.603383301E+03
1.507187352E+01  2.601200684E+03
1.508205265E+01  2.597552490E+03
1.509223178E+01  2.595515381E+03
1.510241091E+01  2.595349121E+03
1.511259004E+01  2.594397461E+03
1.512276917E+01  2.592883545E+03
1.513294830E+01  2.590913330E+03
1.514312743E+01  2.588811035E+03
1.515330656E+01  2.586321289E+03
1.516348569E+01  2.584189209E+03
1.517366482E+01  2.582800293E+03
1.518384395E+01  2.579894043E+03
1.519402308E+01  2.578160645E+03
1.520420221E+01  2.576771484E+03
1.521438134E+01  2.575786621E+03
1.522456048E+01  2.575517090E+03
1.523473961E+01  2.576397705E+03
1.524491874E+01  2.574041992E+03
1.525509787E+01  2.574147949E+03
1.526527700E+01  2.578076416E+03
1.527545613E+01  2.579928711E+03
1.528563526E+01  2.575273193E+03
1.529581439E+01  2.572906738E+03
1.530599352E+01  2.572859131E+03
1.531617265E+01  2.570089600E+03
1.532635178E+01  2.564640137E+03
1.533653091E+01  2.561976807E+03
1.534671004E+01  2.561783447E+03
1.535688917E+01  2.562221680E+03
1.536706830E+01  2.561089111E+03
1.537724743E+01  2.555992676E+03
1.538742657E+01  2.551527832E+03
1.539760570E+01  2.549401855E+03
1.540778483E+01  2.550593750E+03
1.541796396E+01  2.547017578E+03
1.542814309E+01  2.543726562E+03
1.543832222E+01  2.544138672E+03
1.544850135E+01  2.545343018E+03
1.545868048E+01  2.542878174E+03
1.546885961E+01  2.539349121E+03
1.547903874E+01  2.536629395E+03
1.548921787E+01  2.536071777E+03
1.549939700E+01  2.536513184E+03
1.550957613E+01  2.534843750E+03
1.551975526E+01  2.532801025E+03
1.552993439E+01  2.532581299E+03
1.554011352E+01  2.533581787E+03
1.555029266E+01  2.530991455E+03
1.556047179E+01  2.529484863E+03
1.557065092E+01  2.528443848E+03
1.558083005E+01  2.527559082E+03
1.559100918E+01  2.525447510E+03
1.560118831E+01  2.524157227E+03
1.561136744E+01  2.522656006E+03
1.562154657E+01  2.520651123E+03
1.563172570E+01  2.519427002E+03
1.564190483E+01  2.518748779E+03
1.565208396E+01  2.516096436E+03
1.566226309E+01  2.514788086E+03
1.567244222E+01  2.513873779E+03
1.568262135E+01  2.512052979E+03
1.569280048E+01  2.511072754E+03
1.570297961E+01  2.509590332E+03
1.571315875E+01  2.508127930E+03
1.572333788E+01  2.505830566E+03
1.573351701E+01  2.506108643E+03
1.574369614E+01  2.507088623E+03
1.575387527E+01  2.503573242E+03
1.576405440E+01  2.499382812E+03
1.577423353E+01  2.497692871E+03
1.578441266E+01  2.496162598E+03
1.579459179E+01  2.495038330E+03
1.580477092E+01  2.495033203E+03
1.581495005E+01  2.493941406E+03
1.582512918E+01  2.491645020E+03
1.583530831E+01  2.489708740E+03
1.584548744E+01  2.486928711E+03
1.585566657E+01  2.483086914E+03
1.586584570E+01  2.481189453E+03
1.587602483E+01  2.481751221E+03
1.588620397E+01  2.482547119E+03
1.589638310E+01  2.482449219E+03
1.590656223E+01  2.481455078E+03
1.591674136E+01  2.478963135E+03
1.592692049E+01  2.476253174E+03
1.593709962E+01  2.476440430E+03
1.594727875E+01  2.476531494E+03
1.595745788E+01  2.475173584E+03
1.596763701E+01  2.474102539E+03
1.597781614E+01  2.473865967E+03
1.598799527E+01  2.472083252E+03
1.599817440E+01  2.469961670E+03
1.600835353E+01  2.468774902E+03
1.601853266E+01  2.468070557E+03
1.602871179E+01  2.464916016E+03
1.603889092E+01  2.462680908E+03
1.604907006E+01  2.460501709E+03
1.605924919E+01  2.458714111E+03
1.606942832E+01  2.459334717E+03
1.607960745E+01  2.461675049E+03
1.608978658E+01  2.461325439E+03
1.609996571E+01  2.457670166E+03
1.611014484E+01  2.456437988E+03
1.612032397E+01  2.456535156E+03
1.613050310E+01  2.456817627E+03
1.614068223E+01  2.454497314E+03
1.615086136E+01  2.450731689E+03
1.616104049E+01  2.448766602E+03
1.617121962E+01  2.448792725E+03
1.618139875E+01  2.447518311E+03
1.619157788E+01  2.445523193E+03
1.620175701E+01  2.444388916E+03
1.621193615E+01  2.444588623E+03
1.622211528E+01  2.444198730E+03
1.623229441E+01  2.443007568E+03
1.624247354E+01  2.441670166E+03
1.625265267E+01  2.440264404E+03
1.626283180E+01  2.438662598E+03
1.627301093E+01  2.437029541E+03
1.628319006E+01  2.437748047E+03
1.629336919E+01  2.435970459E+03
1.630354832E+01  2.433317139E+03
1.631372745E+01  2.430885254E+03
1.632390658E+01  2.429941406E+03
1.633408571E+01  2.428724609E+03
1.634426484E+01  2.427737549E+03
1.635444397E+01  2.426027588E+03
1.636462310E+01  2.424431152E+03
1.637480224E+01  2.422652588E+03
1.638498137E+01  2.420996338E+03
1.639516050E+01  2.420243652E+03
1.640533963E+01  2.419043701E+03
1.641551876E+01  2.418635254E+03
1.642569789E+01  2.416075684E+03
1.643587702E+01  2.414233154E+03
1.644605615E+01  2.412980957E+03
1.645623528E+01  2.410916992E+03
1.646641441E+01  2.409941406E+03
1.647659354E+01  2.409286377E+03
1.648677267E+01  2.406945068E+03
1.649695180E+01  2.404859375E+03
1.650713093E+01  2.404462891E+03
1.651731006E+01  2.403299561E+03
1.652748919E+01  2.400198730E+03
1.653766833E+01  2.397164307E+03
1.654784746E+01  2.398009521E+03
1.655802659E+01  2.398344482E+03
1.656820572E+01  2.400331055E+03
1.657838485E+01  2.400601807E+03
1.658856398E+01  2.399632080E+03
1.659874311E+01  2.398535645E+03
1.660892224E+01  2.397211426E+03
1.661910137E+01  2.393601074E+03
1.662928050E+01  2.390432861E+03
1.663945963E+01  2.389987793E+03
1.664963876E+01  2.389946289E+03
1.665981789E+01  2.388548340E+03
1.666999702E+01  2.386085693E+03
1.668017615E+01  2.384792725E+03
1.669035528E+01  2.385314453E+03
1.670053442E+01  2.387293945E+03
1.671071355E+01  2.385149170E+03
1.672089268E+01  2.380248291E+03
1.673107181E+01  2.377864502E+03
1.674125094E+01  2.378203857E+03
1.675143007E+01  2.376291016E+03
1.676160920E+01  2.374195068E+03
1.677178833E+01  2.373845459E+03
1.678196746E+01  2.375705811E+03
1.679214659E+01  2.374481445E+03
1.680232572E+01  2.367998291E+03
1.681250485E+01  2.366611816E+03
1.682268398E+01  2.366211670E+03
1.683286311E+01  2.365702637E+03
1.684304224E+01  2.362291016E+03
1.685322137E+01  2.358596924E+03
1.686340050E+01  2.357405518E+03
1.687357964E+01  2.359849609E+03
1.688375877E+01  2.359518066E+03
1.689393790E+01  2.359499512E+03
1.690411703E+01  2.359027832E+03
1.691429616E+01  2.357601807E+03
1.692447529E+01  2.355243652E+03
1.693465442E+01  2.352575439E+03
1.694483355E+01  2.352585693E+03
1.695501268E+01  2.352402832E+03
1.696519181E+01  2.352462646E+03
1.697537094E+01  2.351673096E+03
1.698555007E+01  2.351914795E+03
1.699572920E+01  2.350014160E+03
1.700590833E+01  2.348077637E+03
1.701608746E+01  2.345461182E+03
1.702626659E+01  2.344439941E+03
1.703644573E+01  2.343915771E+03
1.704662486E+01  2.343461182E+03
1.705680399E+01  2.342079834E+03
1.706698312E+01  2.340270508E+03
1.707716225E+01  2.339995605E+03
1.708734138E+01  2.338107910E+03
1.709752051E+01  2.336838623E+03
1.710769964E+01  2.336922363E+03
1.711787877E+01  2.336931885E+03
1.712805790E+01  2.335793457E+03
1.713823703E+01  2.333931885E+03
1.714841616E+01  2.331987305E+03
1.715859529E+01  2.333183105E+03
1.716877442E+01  2.333937988E+03
1.717895355E+01  2.330395996E+03
1.718913268E+01  2.327496826E+03
1.719931182E+01  2.326762939E+03
1.720949095E+01  2.325653809E+03
1.721967008E+01  2.322992188E+03
1.722984921E+01  2.322701172E+03
1.724002834E+01  2.322605957E+03
1.725020747E+01  2.321031250E+03
1.726038660E+01  2.319130615E+03
1.727056573E+01  2.318000000E+03
1.728074486E+01  2.317562012E+03
1.729092399E+01  2.317457764E+03
1.730110312E+01  2.316573486E+03
1.731128225E+01  2.315311035E+03
1.732146138E+01  2.312427734E+03
1.733164051E+01  2.310289307E+03
1.734181964E+01  2.310027588E+03
1.735199877E+01  2.308984619E+03
1.736217791E+01  2.307900635E+03
1.737235704E+01  2.306844238E+03
1.738253617E+01  2.305819580E+03
1.739271530E+01  2.304584961E+03
1.740289443E+01  2.304172607E+03
1.741307356E+01  2.304303467E+03
1.742325269E+01  2.304259277E+03
1.743343182E+01  2.305690186E+03
1.744361095E+01  2.302910889E+03
1.745379008E+01  2.298141113E+03
1.746396921E+01  2.296048584E+03
1.747414834E+01  2.297193604E+03
1.748432747E+01  2.296603271E+03
1.749450660E+01  2.294559326E+03
1.750468573E+01  2.294788818E+03
1.751486486E+01  2.294077148E+03
1.752504400E+01  2.290392090E+03
1.753522313E+01  2.286214111E+03
1.754540226E+01  2.282078613E+03
1.755558139E+01  2.280077148E+03
1.756576052E+01  2.281782959E+03
1.757593965E+01  2.282466553E+03
1.758611878E+01  2.283254883E+03
1.759629791E+01  2.282874512E+03
1.760647704E+01  2.282373779E+03
1.761665617E+01  2.279803467E+03
1.762683530E+01  2.276610840E+03
1.763701443E+01  2.275621094E+03
1.764719356E+01  2.275619141E+03
1.765737269E+01  2.275164551E+03
1.766755182E+01  2.273783447E+03
1.767773095E+01  2.272942383E+03
1.768791009E+01  2.271554932E+03
1.769808922E+01  2.271844727E+03
1.770826835E+01  2.270334473E+03
1.771844748E+01  2.270047363E+03
1.772862661E+01  2.269626953E+03
1.773880574E+01  2.266629150E+03
1.774898487E+01  2.263072754E+03
1.775916400E+01  2.261573730E+03
1.776934313E+01  2.263661865E+03
1.777952226E+01  2.265277588E+03
1.778970139E+01  2.265743896E+03
1.779988052E+01  2.264384766E+03
1.781005965E+01  2.260585938E+03
1.782023878E+01  2.256098145E+03
1.783041791E+01  2.253737793E+03
1.784059704E+01  2.251501709E+03
1.785077618E+01  2.250592773E+03
1.786095531E+01  2.251219971E+03
1.787113444E+01  2.250904541E+03
1.788131357E+01  2.247967285E+03
1.789149270E+01  2.244362793E+03
1.790167183E+01  2.244161621E+03
1.791185096E+01  2.242767090E+03
1.792203009E+01  2.242353516E+03
1.793220922E+01  2.242912598E+03
1.794238835E+01  2.242331787E+03
1.795256748E+01  2.242039795E+03
1.796274661E+01  2.243424805E+03
1.797292574E+01  2.243339355E+03
1.798310487E+01  2.242579834E+03
1.799328400E+01  2.243290039E+03
1.800346313E+01  2.246385986E+03
1.801364226E+01  2.249170898E+03
1.802382140E+01  2.248337891E+03
1.803400053E+01  2.247012939E+03
1.804417966E+01  2.247075684E+03
1.805435879E+01  2.249035889E+03
1.806453792E+01  2.249335205E+03
1.807471705E+01  2.250262695E+03
1.808489618E+01  2.254828613E+03
1.809507531E+01  2.259431885E+03
1.810525444E+01  2.260935791E+03
1.811543357E+01  2.262234863E+03
1.812561270E+01  2.264247070E+03
1.813579183E+01  2.262714355E+03
1.814597096E+01  2.259579102E+03
1.815615009E+01  2.255487549E+03
1.816632922E+01  2.251721924E+03
1.817650835E+01  2.245380127E+03
1.818668749E+01  2.238611084E+03
1.819686662E+01  2.233938477E+03
1.820704575E+01  2.230607422E+03
1.821722488E+01  2.228000488E+03
1.822740401E+01  2.225061523E+03
1.823758314E+01  2.222186768E+03
1.824776227E+01  2.219666260E+03
1.825794140E+01  2.218986572E+03
1.826812053E+01  2.217160156E+03
1.827829966E+01  2.217458008E+03
1.828847879E+01  2.217541016E+03
1.829865792E+01  2.215580566E+03
1.830883705E+01  2.212944580E+03
1.831901618E+01  2.213375488E+03
1.832919531E+01  2.213722656E+03
1.833937444E+01  2.213293213E+03
1.834955358E+01  2.214833740E+03
1.835973271E+01  2.214915771E+03
1.836991184E+01  2.213353760E+03
1.838009097E+01  2.214023438E+03
1.839027010E+01  2.221414795E+03
1.840044923E+01  2.224633057E+03
1.841062836E+01  2.224256836E+03
1.842080749E+01  2.225579590E+03
1.843098662E+01  2.227457520E+03
1.844116575E+01  2.228503662E+03
1.845134488E+01  2.229211914E+03
1.846152401E+01  2.230043701E+03
1.847170314E+01  2.229785645E+03
1.848188227E+01  2.229972168E+03
1.849206140E+01  2.229981689E+03
1.850224053E+01  2.229452881E+03
1.851241967E+01  2.229820557E+03
1.852259880E+01  2.229548340E+03
1.853277793E+01  2.227740479E+03
1.854295706E+01  2.226937988E+03
1.855313619E+01  2.227184570E+03
1.856331532E+01  2.224409668E+03
1.857349445E+01  2.221659668E+03
1.858367358E+01  2.220311768E+03
1.859385271E+01  2.219044189E+03
1.860403184E+01  2.215316406E+03
1.861421097E+01  2.211085205E+03
1.862439010E+01  2.209245605E+03
1.863456923E+01  2.207156738E+03
1.864474836E+01  2.204876465E+03
1.865492749E+01  2.202616943E+03
1.866510662E+01  2.200802979E+03
1.867528576E+01  2.200437012E+03
1.868546489E+01  2.200664062E+03
1.869564402E+01  2.197397949E+03
1.870582315E+01  2.194670410E+03
1.871600228E+01  2.194605713E+03
1.872618141E+01  2.194523682E+03
1.873636054E+01  2.192529053E+03
1.874653967E+01  2.187242676E+03
1.875671880E+01  2.182404785E+03
1.876689793E+01  2.179984619E+03
1.877707706E+01  2.180767334E+03
1.878725619E+01  2.179546875E+03
1.879743532E+01  2.178426758E+03
1.880761445E+01  2.179055176E+03
1.881779358E+01  2.178162109E+03
1.882797271E+01  2.175385742E+03
1.883815185E+01  2.173976074E+03
1.884833098E+01  2.174819092E+03
1.885851011E+01  2.173552002E+03
1.886868924E+01  2.171116211E+03
1.887886837E+01  2.169593262E+03
1.888904750E+01  2.167586914E+03
1.889922663E+01  2.167355957E+03
1.890940576E+01  2.168399902E+03
1.891958489E+01  2.165725586E+03
1.892976402E+01  2.163112793E+03
1.893994315E+01  2.163867188E+03
1.895012228E+01  2.164184082E+03
1.896030141E+01  2.163745850E+03
1.897048054E+01  2.162439453E+03
1.898065967E+01  2.161204590E+03
1.899083880E+01  2.159461426E+03
1.900101793E+01  2.157591553E+03
1.901119707E+01  2.155723877E+03
1.902137620E+01  2.152909912E+03
1.903155533E+01  2.151695068E+03
1.904173446E+01  2.149517578E+03
1.905191359E+01  2.148039062E+03
1.906209272E+01  2.147866699E+03
1.907227185E+01  2.148254150E+03
1.908245098E+01  2.147557861E+03
1.909263011E+01  2.146359863E+03
1.910280924E+01  2.144933838E+03
1.911298837E+01  2.143900146E+03
1.912316750E+01  2.145219971E+03
1.913334663E+01  2.144434082E+03
1.914352576E+01  2.141740479E+03
1.915370489E+01  2.139421387E+03
1.916388402E+01  2.139716797E+03
1.917406316E+01  2.138296631E+03
1.918424229E+01  2.136157227E+03
1.919442142E+01  2.135220215E+03
1.920460055E+01  2.134633301E+03
1.921477968E+01  2.133958496E+03
1.922495881E+01  2.132929443E+03
1.923513794E+01  2.133884033E+03
1.924531707E+01  2.133746826E+03
1.925549620E+01  2.132750244E+03
1.926567533E+01  2.130484619E+03
1.927585446E+01  2.129085693E+03
1.928603359E+01  2.128417480E+03
1.929621272E+01  2.127857666E+03
1.930639185E+01  2.126173340E+03
1.931657098E+01  2.125132568E+03
1.932675011E+01  2.127019287E+03
1.933692925E+01  2.126593262E+03
1.934710838E+01  2.124509033E+03
1.935728751E+01  2.123954590E+03
1.936746664E+01  2.124489014E+03
1.937764577E+01  2.124038330E+03
1.938782490E+01  2.123692139E+03
1.939800403E+01  2.120936768E+03
1.940818316E+01  2.118769775E+03
1.941836229E+01  2.118712891E+03
1.942854142E+01  2.117994385E+03
1.943872055E+01  2.118453125E+03
1.944889968E+01  2.119427734E+03
1.945907881E+01  2.120374512E+03
1.946925794E+01  2.119123535E+03
1.947943707E+01  2.118154053E+03
1.948961620E+01  2.119147217E+03
1.949979534E+01  2.119418701E+03
1.950997447E+01  2.118840088E+03
1.952015360E+01  2.118392578E+03
1.953033273E+01  2.117460693E+03
1.954051186E+01  2.117825195E+03
1.955069099E+01  2.119864014E+03
1.956087012E+01  2.120272217E+03
1.957104925E+01  2.120684570E+03
1.958122838E+01  2.122072021E+03
1.959140751E+01  2.122614502E+03
1.960158664E+01  2.122179199E+03
1.961176577E+01  2.122712402E+03
1.962194490E+01  2.124576172E+03
1.963212403E+01  2.123440674E+03
1.964230316E+01  2.120941650E+03
1.965248229E+01  2.118629150E+03
1.966266143E+01  2.116870117E+03
1.967284056E+01  2.114409912E+03
1.968301969E+01  2.113531006E+03
1.969319882E+01  2.112522705E+03
1.970337795E+01  2.111334717E+03
1.971355708E+01  2.111582520E+03
1.972373621E+01  2.109725830E+03
1.973391534E+01  2.106754395E+03
1.974409447E+01  2.105889893E+03
1.975427360E+01  2.105148193E+03
1.976445273E+01  2.101220703E+03
1.977463186E+01  2.098548828E+03
1.978481099E+01  2.100148193E+03
1.979499012E+01  2.098360352E+03
1.980516925E+01  2.095308594E+03
1.981534838E+01  2.093532959E+03
1.982552752E+01  2.093158691E+03
1.983570665E+01  2.093651855E+03
1.984588578E+01  2.094689209E+03
1.985606491E+01  2.095164551E+03
1.986624404E+01  2.095604736E+03
1.987642317E+01  2.096538330E+03
1.988660230E+01  2.093620850E+03
1.989678143E+01  2.091429443E+03
1.990696056E+01  2.090535645E+03
1.991713969E+01  2.089996826E+03
1.992731882E+01  2.088981689E+03
1.993749795E+01  2.087536621E+03
1.994767708E+01  2.085175781E+03
1.995785621E+01  2.082766602E+03
1.996803534E+01  2.082913818E+03
1.997821447E+01  2.082441162E+03
1.998839360E+01  2.081193604E+03
1.999857274E+01  2.079636230E+03
2.000875187E+01  2.078974854E+03
2.001893100E+01  2.077053955E+03
2.002911013E+01  2.075881836E+03
2.003928926E+01  2.077510254E+03
2.004946839E+01  2.075000244E+03
2.005964752E+01  2.071518555E+03
2.006982665E+01  2.069072754E+03
2.008000578E+01  2.069075195E+03
2.009018491E+01  2.069818604E+03
2.010036404E+01  2.069045166E+03
2.011054317E+01  2.067761230E+03
2.012072230E+01  2.067218994E+03
2.013090143E+01  2.067707275E+03
2.014108056E+01  2.067491455E+03
2.015125969E+01  2.066705566E+03
2.016143883E+01  2.066596680E+03
2.017161796E+01  2.065694580E+03
2.018179709E+01  2.063106445E+03
2.019197622E+01  2.061228027E+03
2.020215535E+01  2.060529541E+03
2.021233448E+01  2.059598633E+03
2.022251361E+01  2.059142822E+03
2.023269274E+01  2.058214355E+03
2.024287187E+01  2.056173828E+03
2.025305100E+01  2.055337158E+03
2.026323013E+01  2.054849609E+03
2.027340926E+01  2.053328125E+03
2.028358839E+01  2.051579346E+03
2.029376752E+01  2.053508545E+03
2.030394665E+01  2.053882812E+03
2.031412578E+01  2.051281250E+03
2.032430492E+01  2.049523926E+03
2.033448405E+01  2.047811035E+03
2.034466318E+01  2.047027710E+03
2.035484231E+01  2.047078247E+03
2.036502144E+01  2.046200195E+03
2.037520057E+01  2.045126709E+03
2.038537970E+01  2.045621826E+03
2.039555883E+01  2.044976929E+03
2.040573796E+01  2.042749756E+03
2.041591709E+01  2.041409180E+03
2.042609622E+01  2.042219116E+03
2.043627535E+01  2.041504272E+03
2.044645448E+01  2.041112183E+03
2.045663361E+01  2.040867676E+03
2.046681274E+01  2.039116455E+03
2.047699187E+01  2.038261963E+03
2.048717101E+01  2.037070923E+03
2.049735014E+01  2.036845459E+03
2.050752927E+01  2.038039673E+03
2.051770840E+01  2.038850708E+03
2.052788753E+01  2.039548218E+03
2.053806666E+01  2.040560181E+03
2.054824579E+01  2.042520996E+03
2.055842492E+01  2.042299072E+03
2.056860405E+01  2.043021851E+03
2.057878318E+01  2.044987549E+03
2.058896231E+01  2.047064819E+03
2.059914144E+01  2.048108154E+03
2.060932057E+01  2.049722900E+03
2.061949970E+01  2.051391357E+03
2.062967883E+01  2.051487305E+03
2.063985796E+01  2.052081299E+03
2.065003710E+01  2.050522461E+03
2.066021623E+01  2.048325684E+03
2.067039536E+01  2.047110474E+03
2.068057449E+01  2.046105225E+03
2.069075362E+01  2.042922119E+03
2.070093275E+01  2.039768311E+03
2.071111188E+01  2.037614136E+03
2.072129101E+01  2.035183105E+03
2.073147014E+01  2.034213257E+03
2.074164927E+01  2.031120605E+03
2.075182840E+01  2.028273193E+03
2.076200753E+01  2.028420044E+03
2.077218666E+01  2.029497925E+03
2.078236579E+01  2.027968872E+03
2.079254492E+01  2.024821411E+03
2.080272405E+01  2.022872192E+03
2.081290319E+01  2.020420166E+03
2.082308232E+01  2.019496704E+03
2.083326145E+01  2.020317261E+03
2.084344058E+01  2.019769653E+03
2.085361971E+01  2.018514282E+03
2.086379884E+01  2.018299194E+03
2.087397797E+01  2.017758057E+03
2.088415710E+01  2.015687744E+03
2.089433623E+01  2.013855957E+03
2.090451536E+01  2.012767578E+03
2.091469449E+01  2.013241089E+03
2.092487362E+01  2.013971191E+03
2.093505275E+01  2.010408325E+03
2.094523188E+01  2.006751953E+03
2.095541101E+01  2.006348267E+03
2.096559014E+01  2.007952637E+03
2.097576927E+01  2.009563721E+03
2.098594841E+01  2.009501953E+03
2.099612754E+01  2.007961426E+03
2.100630667E+01  2.006638550E+03
2.101648580E+01  2.006580566E+03
2.102666493E+01  2.004074951E+03
2.103684406E+01  2.002890503E+03
2.104702319E+01  2.002453491E+03
2.105720232E+01  1.999688599E+03
2.106738145E+01  1.996886230E+03
2.107756058E+01  1.994879517E+03
2.108773971E+01  1.994885620E+03
2.109791884E+01  1.995073730E+03
2.110809797E+01  1.994615479E+03
2.111827710E+01  1.993716309E+03
2.112845623E+01  1.994023071E+03
2.113863536E+01  1.994711182E+03
2.114881450E+01  1.994570190E+03
2.115899363E+01  1.993471313E+03
2.116917276E+01  1.993016846E+03
2.117935189E+01  1.993813110E+03
2.118953102E+01  1.991546509E+03
2.119971015E+01  1.990963623E+03
2.120988928E+01  1.991978638E+03
2.122006841E+01  1.989515625E+03
2.123024754E+01  1.986801636E+03
2.124042667E+01  1.984176758E+03
2.125060580E+01  1.983227905E+03
2.126078493E+01  1.983997681E+03
2.127096406E+01  1.983984131E+03
2.128114319E+01  1.983064941E+03
2.129132232E+01  1.982938721E+03
2.130150145E+01  1.983129761E+03
2.131168059E+01  1.983249390E+03
2.132185972E+01  1.982206055E+03
2.133203885E+01  1.980388794E+03
2.134221798E+01  1.979904907E+03
2.135239711E+01  1.979568848E+03
2.136257624E+01  1.979251587E+03
2.137275537E+01  1.978319214E+03
2.138293450E+01  1.976165283E+03
2.139311363E+01  1.976631348E+03
2.140329276E+01  1.976381470E+03
2.141347189E+01  1.975117432E+03
2.142365102E+01  1.973099731E+03
2.143383015E+01  1.972228516E+03
2.144400928E+01  1.972716797E+03
2.145418841E+01  1.971754028E+03
2.146436754E+01  1.971419922E+03
2.147454668E+01  1.971250977E+03
2.148472581E+01  1.970056030E+03
2.149490494E+01  1.967680176E+03
2.150508407E+01  1.967327393E+03
2.151526320E+01  1.969424927E+03
2.152544233E+01  1.968418945E+03
2.153562146E+01  1.965148682E+03
2.154580059E+01  1.963983032E+03
2.155597972E+01  1.966008179E+03
2.156615885E+01  1.966859497E+03
2.157633798E+01  1.965848267E+03
2.158651711E+01  1.965249756E+03
2.159669624E+01  1.964845825E+03
2.160687537E+01  1.965873901E+03
2.161705450E+01  1.967119141E+03
2.162723363E+01  1.966577393E+03
2.163741277E+01  1.965067139E+03
2.164759190E+01  1.963611328E+03
2.165777103E+01  1.962091187E+03
2.166795016E+01  1.960712524E+03
2.167812929E+01  1.961473511E+03
2.168830842E+01  1.960570435E+03
2.169848755E+01  1.958953125E+03
2.170866668E+01  1.958815308E+03
2.171884581E+01  1.959116211E+03
2.172902494E+01  1.959026978E+03
2.173920407E+01  1.958139038E+03
2.174938320E+01  1.957277710E+03
2.175956233E+01  1.957315674E+03
2.176974146E+01  1.958407715E+03
2.177992059E+01  1.958193115E+03
2.179009972E+01  1.957387573E+03
2.180027886E+01  1.956500000E+03
2.181045799E+01  1.955081543E+03
2.182063712E+01  1.954235474E+03
2.183081625E+01  1.953563354E+03
2.184099538E+01  1.953869141E+03
2.185117451E+01  1.953439697E+03
2.186135364E+01  1.952140259E+03
2.187153277E+01  1.950738159E+03
2.188171190E+01  1.950168457E+03
2.189189103E+01  1.951369629E+03
2.190207016E+01  1.949522583E+03
2.191224929E+01  1.947157104E+03
2.192242842E+01  1.947256104E+03
2.193260755E+01  1.946487793E+03
2.194278668E+01  1.943521484E+03
2.195296581E+01  1.941526489E+03
2.196314495E+01  1.941262573E+03
2.197332408E+01  1.939487183E+03
2.198350321E+01  1.938292725E+03
2.199368234E+01  1.939054199E+03
2.200386147E+01  1.938171387E+03
2.201404060E+01  1.936190430E+03
2.202421973E+01  1.934879150E+03
2.203439886E+01  1.935481445E+03
2.204457799E+01  1.936600952E+03
2.205475712E+01  1.935958496E+03
2.206493625E+01  1.933629761E+03
2.207511538E+01  1.933033569E+03
2.208529451E+01  1.934677979E+03
2.209547364E+01  1.935324219E+03
2.210565277E+01  1.934406982E+03
2.211583190E+01  1.933867310E+03
2.212601103E+01  1.933489868E+03
2.213619017E+01  1.932555054E+03
2.214636930E+01  1.931899292E+03
2.215654843E+01  1.931390503E+03
2.216672756E+01  1.931415771E+03
2.217690669E+01  1.932491699E+03
2.218708582E+01  1.932027344E+03
2.219726495E+01  1.929418091E+03
2.220744408E+01  1.928063843E+03
2.221762321E+01  1.928236572E+03
2.222780234E+01  1.927229492E+03
2.223798147E+01  1.927691040E+03
2.224816060E+01  1.929052612E+03
2.225833973E+01  1.929004517E+03
2.226851886E+01  1.927184570E+03
2.227869799E+01  1.924930420E+03
2.228887712E+01  1.922759155E+03
2.229905626E+01  1.923061890E+03
2.230923539E+01  1.923734253E+03
2.231941452E+01  1.924039673E+03
2.232959365E+01  1.924818726E+03
2.233977278E+01  1.925875000E+03
2.234995191E+01  1.926212891E+03
2.236013104E+01  1.924675903E+03
2.237031017E+01  1.922898315E+03
2.238048930E+01  1.921663086E+03
2.239066843E+01  1.920271606E+03
2.240084756E+01  1.918685913E+03
2.241102669E+01  1.917896118E+03
2.242120582E+01  1.918038208E+03
2.243138495E+01  1.916397583E+03
2.244156408E+01  1.914706055E+03
2.245174321E+01  1.915664307E+03
2.246192235E+01  1.917682007E+03
2.247210148E+01  1.917313599E+03
2.248228061E+01  1.915099243E+03
2.249245974E+01  1.914359741E+03
2.250263887E+01  1.914866577E+03
2.251281800E+01  1.916532227E+03
2.252299713E+01  1.916303223E+03
2.253317626E+01  1.914136108E+03
2.254335539E+01  1.913617920E+03
2.255353452E+01  1.912862793E+03
2.256371365E+01  1.912360718E+03
2.257389278E+01  1.912104004E+03
2.258407191E+01  1.913054565E+03
2.259425104E+01  1.912858154E+03
2.260443017E+01  1.911457153E+03
2.261460930E+01  1.910698608E+03
2.262478844E+01  1.908410522E+03
2.263496757E+01  1.908041504E+03
2.264514670E+01  1.909162476E+03
2.265532583E+01  1.908047852E+03
2.266550496E+01  1.906668823E+03
2.267568409E+01  1.905723267E+03
2.268586322E+01  1.905294800E+03
2.269604235E+01  1.905463501E+03
2.270622148E+01  1.906675049E+03
2.271640061E+01  1.906207886E+03
2.272657974E+01  1.905195068E+03
2.273675887E+01  1.904906250E+03
2.274693800E+01  1.904463623E+03
2.275711713E+01  1.903628662E+03
2.276729626E+01  1.901992310E+03
2.277747539E+01  1.900262329E+03
2.278765453E+01  1.900125366E+03
2.279783366E+01  1.900328125E+03
2.280801279E+01  1.898638306E+03
2.281819192E+01  1.897361450E+03
2.282837105E+01  1.897925537E+03
2.283855018E+01  1.897446899E+03
2.284872931E+01  1.897655029E+03
2.285890844E+01  1.898753174E+03
2.286908757E+01  1.896700684E+03
2.287926670E+01  1.895073975E+03
2.288944583E+01  1.895630005E+03
2.289962496E+01  1.895611938E+03
2.290980409E+01  1.895494385E+03
2.291998322E+01  1.895952271E+03
2.293016235E+01  1.895867920E+03
2.294034148E+01  1.895449219E+03
2.295052062E+01  1.895076782E+03
2.296069975E+01  1.893549438E+03
2.297087888E+01  1.892666016E+03
2.298105801E+01  1.892449463E+03
2.299123714E+01  1.890749878E+03
2.300141627E+01  1.890082031E+03
2.301159540E+01  1.887797363E+03
2.302177453E+01  1.884755371E+03
2.303195366E+01  1.885131714E+03
2.304213279E+01  1.886177979E+03
2.305231192E+01  1.886714478E+03
2.306249105E+01  1.886711792E+03
2.307267018E+01  1.886594360E+03
2.308284931E+01  1.885314819E+03
2.309302844E+01  1.883459839E+03
2.310320757E+01  1.884070557E+03
2.311338670E+01  1.884249146E+03
2.312356584E+01  1.882328125E+03
2.313374497E+01  1.881094482E+03
2.314392410E+01  1.880244141E+03
2.315410323E+01  1.878364380E+03
2.316428236E+01  1.878021851E+03
2.317446149E+01  1.879824951E+03
2.318464062E+01  1.880352295E+03
2.319481975E+01  1.879862793E+03
2.320499888E+01  1.879344849E+03
2.321517801E+01  1.878734253E+03
2.322535714E+01  1.879145508E+03
2.323553627E+01  1.879227051E+03
2.324571540E+01  1.878835571E+03
2.325589453E+01  1.878566284E+03
2.326607366E+01  1.880170776E+03
2.327625279E+01  1.881268433E+03
2.328643193E+01  1.880570679E+03
2.329661106E+01  1.880469849E+03
2.330679019E+01  1.881313599E+03
2.331696932E+01  1.880358276E+03
2.332714845E+01  1.878457764E+03
2.333732758E+01  1.879231812E+03
2.334750671E+01  1.882865967E+03
2.335768584E+01  1.883247925E+03
2.336786497E+01  1.882443726E+03
2.337804410E+01  1.883610352E+03
2.338822323E+01  1.886548706E+03
2.339840236E+01  1.889429688E+03
2.340858149E+01  1.892925903E+03
2.341876062E+01  1.897148560E+03
2.342893975E+01  1.900635132E+03
2.343911888E+01  1.903775024E+03
2.344929802E+01  1.908044922E+03
2.345947715E+01  1.912415405E+03
2.346965628E+01  1.917141968E+03
2.347983541E+01  1.920489258E+03
2.349001454E+01  1.922510864E+03
2.350019367E+01  1.925110229E+03
2.351037280E+01  1.926765991E+03
2.352055193E+01  1.926696899E+03
2.353073106E+01  1.926726440E+03
2.354091019E+01  1.924016357E+03
2.355108932E+01  1.919179810E+03
2.356126845E+01  1.915284302E+03
2.357144758E+01  1.910988525E+03
2.358162671E+01  1.906509399E+03
2.359180584E+01  1.903958862E+03
2.360198497E+01  1.901516479E+03
2.361216411E+01  1.899211304E+03
2.362234324E+01  1.897047607E+03
2.363252237E+01  1.893621582E+03
2.364270150E+01  1.889369385E+03
2.365288063E+01  1.885310303E+03
2.366305976E+01  1.882347168E+03
2.367323889E+01  1.880788574E+03
2.368341802E+01  1.878145874E+03
2.369359715E+01  1.874053223E+03
2.370377628E+01  1.869569580E+03
2.371395541E+01  1.867009277E+03
2.372413454E+01  1.864385986E+03
2.373431367E+01  1.861130615E+03
2.374449280E+01  1.858370239E+03
2.375467193E+01  1.855483887E+03
2.376485106E+01  1.854050537E+03
2.377503020E+01  1.852626831E+03
2.378520933E+01  1.851109375E+03
2.379538846E+01  1.850297607E+03
2.380556759E+01  1.848520264E+03
2.381574672E+01  1.844751953E+03
2.382592585E+01  1.842701416E+03
2.383610498E+01  1.842015381E+03
2.384628411E+01  1.840735718E+03
2.385646324E+01  1.838001709E+03
2.386664237E+01  1.836537231E+03
2.387682150E+01  1.836111206E+03
2.388700063E+01  1.835551514E+03
2.389717976E+01  1.833966797E+03
2.390735889E+01  1.833092163E+03
2.391753802E+01  1.834251221E+03
2.392771715E+01  1.834866577E+03
2.393789629E+01  1.834472290E+03
2.394807542E+01  1.834124634E+03
2.395825455E+01  1.834586426E+03
2.396843368E+01  1.835170288E+03
2.397861281E+01  1.834453857E+03
2.398879194E+01  1.833399658E+03
2.399897107E+01  1.831818848E+03
2.400915020E+01  1.830234863E+03
2.401932933E+01  1.826907471E+03
2.402950846E+01  1.824885010E+03
2.403968759E+01  1.825323608E+03
2.404986672E+01  1.824366089E+03
2.406004585E+01  1.822659912E+03
2.407022498E+01  1.823180664E+03
2.408040411E+01  1.824067017E+03
2.409058324E+01  1.823087402E+03
2.410076237E+01  1.822708984E+03
2.411094151E+01  1.823383545E+03
2.412112064E+01  1.823630127E+03
2.413129977E+01  1.822450439E+03
2.414147890E+01  1.820124390E+03
2.415165803E+01  1.818159546E+03
2.416183716E+01  1.818416748E+03
2.417201629E+01  1.817922485E+03
2.418219542E+01  1.817410034E+03
2.419237455E+01  1.816720093E+03
2.420255368E+01  1.814812134E+03
2.421273281E+01  1.813786133E+03
2.422291194E+01  1.813046387E+03
2.423309107E+01  1.812670776E+03
2.424327020E+01  1.811824219E+03
2.425344933E+01  1.810949585E+03
2.426362846E+01  1.811416382E+03
2.427380760E+01  1.811614258E+03
2.428398673E+01  1.811571167E+03
2.429416586E+01  1.810390015E+03
2.430434499E+01  1.809733398E+03
2.431452412E+01  1.808364258E+03
2.432470325E+01  1.805301147E+03
2.433488238E+01  1.804758667E+03
2.434506151E+01  1.805496704E+03
2.435524064E+01  1.805356689E+03
2.436541977E+01  1.804734253E+03
2.437559890E+01  1.803693726E+03
2.438577803E+01  1.802867554E+03
2.439595716E+01  1.801740967E+03
2.440613629E+01  1.800902100E+03
2.441631542E+01  1.800154175E+03
2.442649455E+01  1.798956665E+03
2.443667369E+01  1.798486572E+03
2.444685282E+01  1.798831421E+03
2.445703195E+01  1.800181763E+03
2.446721108E+01  1.802666992E+03
2.447739021E+01  1.802838379E+03
2.448756934E+01  1.801051514E+03
2.449774847E+01  1.799807617E+03
2.450792760E+01  1.799989502E+03
2.451810673E+01  1.801467041E+03
2.452828586E+01  1.801285767E+03
2.453846499E+01  1.798385254E+03
2.454864412E+01  1.795223633E+03
2.455882325E+01  1.794035034E+03
2.456900238E+01  1.794987671E+03
2.457918151E+01  1.796250854E+03
2.458936064E+01  1.797533813E+03
2.459953978E+01  1.797714478E+03
2.460971891E+01  1.796287598E+03
2.461989804E+01  1.796472778E+03
2.463007717E+01  1.795419312E+03
2.464025630E+01  1.792829346E+03
2.465043543E+01  1.789303955E+03
2.466061456E+01  1.786507568E+03
2.467079369E+01  1.786382935E+03
2.468097282E+01  1.786904785E+03
2.469115195E+01  1.786762817E+03
2.470133108E+01  1.787857178E+03
2.471151021E+01  1.788913330E+03
2.472168934E+01  1.787551147E+03
2.473186847E+01  1.786341309E+03
2.474204760E+01  1.786239746E+03
2.475222673E+01  1.785052979E+03
2.476240587E+01  1.783450317E+03
2.477258500E+01  1.781209839E+03
2.478276413E+01  1.777883911E+03
2.479294326E+01  1.776217773E+03
2.480312239E+01  1.775523926E+03
2.481330152E+01  1.775789551E+03
2.482348065E+01  1.775862549E+03
2.483365978E+01  1.775115723E+03
2.484383891E+01  1.774991089E+03
2.485401804E+01  1.773722900E+03
2.486419717E+01  1.771766235E+03
2.487437630E+01  1.770877441E+03
2.488455543E+01  1.770183716E+03
2.489473456E+01  1.769678345E+03
2.490491369E+01  1.770089355E+03
2.491509282E+01  1.768250488E+03
2.492527196E+01  1.764313843E+03
2.493545109E+01  1.762829102E+03
2.494563022E+01  1.763489502E+03
2.495580935E+01  1.762984863E+03
2.496598848E+01  1.761863647E+03
2.497616761E+01  1.762553345E+03
2.498634674E+01  1.762559570E+03
2.499652587E+01  1.762072266E+03
2.500670500E+01  1.762335938E+03
2.501688413E+01  1.763377686E+03
2.502706326E+01  1.763143188E+03
2.503724239E+01  1.759432129E+03
2.504742152E+01  1.756747314E+03
2.505760065E+01  1.757821045E+03
2.506777978E+01  1.758430664E+03
2.507795891E+01  1.755891357E+03
2.508813804E+01  1.755076782E+03
2.509831718E+01  1.754391846E+03
2.510849631E+01  1.752585449E+03
2.511867544E+01  1.751653198E+03
2.512885457E+01  1.749930420E+03
2.513903370E+01  1.747549561E+03
2.514921283E+01  1.748005981E+03
2.515939196E+01  1.749003906E+03
2.516957109E+01  1.748957031E+03
2.517975022E+01  1.749391968E+03
2.518992935E+01  1.750367310E+03
2.520010848E+01  1.748918335E+03
2.521028761E+01  1.746078979E+03
2.522046674E+01  1.744505981E+03
2.523064587E+01  1.742752808E+03
2.524082500E+01  1.741052124E+03
2.525100413E+01  1.740432129E+03
2.526118327E+01  1.740690552E+03
2.527136240E+01  1.740865723E+03
2.528154153E+01  1.739367065E+03
2.529172066E+01  1.738021973E+03
2.530189979E+01  1.738915527E+03
2.531207892E+01  1.738832886E+03
2.532225805E+01  1.737061157E+03
2.533243718E+01  1.736328247E+03
2.534261631E+01  1.735415283E+03
2.535279544E+01  1.735045654E+03
2.536297457E+01  1.736514648E+03
2.537315370E+01  1.736858643E+03
2.538333283E+01  1.735369629E+03
2.539351196E+01  1.733738037E+03
2.540369109E+01  1.733011963E+03
2.541387022E+01  1.731468750E+03
2.542404936E+01  1.728206543E+03
2.543422849E+01  1.726199585E+03
2.544440762E+01  1.727369629E+03
2.545458675E+01  1.728253906E+03
2.546476588E+01  1.728399292E+03
2.547494501E+01  1.728509521E+03
2.548512414E+01  1.728222778E+03
2.549530327E+01  1.727515015E+03
2.550548240E+01  1.726388672E+03
2.551566153E+01  1.724560303E+03
2.552584066E+01  1.723852051E+03
2.553601979E+01  1.725176636E+03
2.554619892E+01  1.724677734E+03
2.555637805E+01  1.722338013E+03
2.556655718E+01  1.719650391E+03
2.557673631E+01  1.718276245E+03
2.558691545E+01  1.718720459E+03
2.559709458E+01  1.720193970E+03
2.560727371E+01  1.719517944E+03
2.561745284E+01  1.718411377E+03
2.562763197E+01  1.718138794E+03
2.563781110E+01  1.717832764E+03
2.564799023E+01  1.717866577E+03
2.565816936E+01  1.716917725E+03
2.566834849E+01  1.715235962E+03
2.567852762E+01  1.714043945E+03
2.568870675E+01  1.712902466E+03
2.569888588E+01  1.712669434E+03
2.570906501E+01  1.712301147E+03
2.571924414E+01  1.710626587E+03
2.572942327E+01  1.710316895E+03
2.573960240E+01  1.710236328E+03
2.574978154E+01  1.708832520E+03
2.575996067E+01  1.706913574E+03
2.577013980E+01  1.707350708E+03
2.578031893E+01  1.708253052E+03
2.579049806E+01  1.708881714E+03
2.580067719E+01  1.709934937E+03
2.581085632E+01  1.709486816E+03
2.582103545E+01  1.709230347E+03
2.583121458E+01  1.708699097E+03
2.584139371E+01  1.706733521E+03
2.585157284E+01  1.704493164E+03
2.586175197E+01  1.702062012E+03
2.587193110E+01  1.699614746E+03
2.588211023E+01  1.699694580E+03
2.589228936E+01  1.700823608E+03
2.590246849E+01  1.700757202E+03
2.591264763E+01  1.700014404E+03
2.592282676E+01  1.701266968E+03
2.593300589E+01  1.702033325E+03
2.594318502E+01  1.701870728E+03
2.595336415E+01  1.702205933E+03
2.596354328E+01  1.700564697E+03
2.597372241E+01  1.698295654E+03
2.598390154E+01  1.697534546E+03
2.599408067E+01  1.697349854E+03
2.600425980E+01  1.696770020E+03
2.601443893E+01  1.695932617E+03
2.602461806E+01  1.695175659E+03
2.603479719E+01  1.695182129E+03
2.604497632E+01  1.693378174E+03
2.605515545E+01  1.691549438E+03
2.606533458E+01  1.692199097E+03
2.607551372E+01  1.692708496E+03
2.608569285E+01  1.692738159E+03
2.609587198E+01  1.691979980E+03
2.610605111E+01  1.690357666E+03
2.611623024E+01  1.689275391E+03
2.612640937E+01  1.689561157E+03
2.613658850E+01  1.690392456E+03
2.614676763E+01  1.690193359E+03
2.615694676E+01  1.688832153E+03
2.616712589E+01  1.687269043E+03
2.617730502E+01  1.686864746E+03
2.618748415E+01  1.687477783E+03
2.619766328E+01  1.687058228E+03
2.620784241E+01  1.686380493E+03
2.621802154E+01  1.685477539E+03
2.622820067E+01  1.684047852E+03
2.623837980E+01  1.684409424E+03
2.624855894E+01  1.684834229E+03
2.625873807E+01  1.684429077E+03
2.626891720E+01  1.684747314E+03
2.627909633E+01  1.684438965E+03
2.628927546E+01  1.683582275E+03
2.629945459E+01  1.682847778E+03
2.630963372E+01  1.681789429E+03
2.631981285E+01  1.681273560E+03
2.632999198E+01  1.681438843E+03
2.634017111E+01  1.681513916E+03
2.635035024E+01  1.681157104E+03
2.636052937E+01  1.680190430E+03
2.637070850E+01  1.677848022E+03
2.638088763E+01  1.676610840E+03
2.639106676E+01  1.677677856E+03
2.640124589E+01  1.677975220E+03
2.641142503E+01  1.678282104E+03
2.642160416E+01  1.677340210E+03
2.643178329E+01  1.675245972E+03
2.644196242E+01  1.674764526E+03
2.645214155E+01  1.675607300E+03
2.646232068E+01  1.676516357E+03
2.647249981E+01  1.675366943E+03
2.648267894E+01  1.673225952E+03
2.649285807E+01  1.672791382E+03
2.650303720E+01  1.673230957E+03
2.651321633E+01  1.672189209E+03
2.652339546E+01  1.671527710E+03
2.653357459E+01  1.671942871E+03
2.654375372E+01  1.670531250E+03
2.655393285E+01  1.668524170E+03
2.656411198E+01  1.668262817E+03
2.657429112E+01  1.667990112E+03
2.658447025E+01  1.667246216E+03
2.659464938E+01  1.666068726E+03
2.660482851E+01  1.665037598E+03
2.661500764E+01  1.665140259E+03
2.662518677E+01  1.664246948E+03
2.663536590E+01  1.663392456E+03
2.664554503E+01  1.663774048E+03
2.665572416E+01  1.663708374E+03
2.666590329E+01  1.663412354E+03
2.667608242E+01  1.664709595E+03
2.668626155E+01  1.665401855E+03
2.669644068E+01  1.663605103E+03
2.670661981E+01  1.662549561E+03
2.671679894E+01  1.662660034E+03
2.672697807E+01  1.663963379E+03
2.673715721E+01  1.663026733E+03
2.674733634E+01  1.660692017E+03
2.675751547E+01  1.660628540E+03
2.676769460E+01  1.660729370E+03
2.677787373E+01  1.660229248E+03
2.678805286E+01  1.658881470E+03
2.679823199E+01  1.656655518E+03
2.680841112E+01  1.653839600E+03
2.681859025E+01  1.653345581E+03
2.682876938E+01  1.654888428E+03
2.683894851E+01  1.656969727E+03
2.684912764E+01  1.658736694E+03
2.685930677E+01  1.658471924E+03
2.686948590E+01  1.657582642E+03
2.687966503E+01  1.657178589E+03
2.688984416E+01  1.655201050E+03
2.690002330E+01  1.653640747E+03
2.691020243E+01  1.653931152E+03
2.692038156E+01  1.653418335E+03
2.693056069E+01  1.652056152E+03
2.694073982E+01  1.649857544E+03
2.695091895E+01  1.648974976E+03
2.696109808E+01  1.649847534E+03
2.697127721E+01  1.648687622E+03
2.698145634E+01  1.647502075E+03
2.699163547E+01  1.647587769E+03
2.700181460E+01  1.646847412E+03
2.701199373E+01  1.646228271E+03
2.702217286E+01  1.645834961E+03
2.703235199E+01  1.645740601E+03
2.704253112E+01  1.645247437E+03
2.705271025E+01  1.642507568E+03
2.706288939E+01  1.640832275E+03
2.707306852E+01  1.641365112E+03
2.708324765E+01  1.642172974E+03
2.709342678E+01  1.642867065E+03
2.710360591E+01  1.643919189E+03
2.711378504E+01  1.643452271E+03
2.712396417E+01  1.643527954E+03
2.713414330E+01  1.644411377E+03
2.714432243E+01  1.643887573E+03
2.715450156E+01  1.641709595E+03
2.716468069E+01  1.639854614E+03
2.717485982E+01  1.639940918E+03
2.718503895E+01  1.641071533E+03
2.719521808E+01  1.639366211E+03
2.720539721E+01  1.636162720E+03
2.721557634E+01  1.636655640E+03
2.722575547E+01  1.638116089E+03
2.723593461E+01  1.638997314E+03
2.724611374E+01  1.637833740E+03
2.725629287E+01  1.636991211E+03
2.726647200E+01  1.636647949E+03
2.727665113E+01  1.635589966E+03
2.728683026E+01  1.634290283E+03
2.729700939E+01  1.634063232E+03
2.730718852E+01  1.633574341E+03
2.731736765E+01  1.631912964E+03
2.732754678E+01  1.631267578E+03
2.733772591E+01  1.631133789E+03
2.734790504E+01  1.630088257E+03
2.735808417E+01  1.629889282E+03
2.736826330E+01  1.630043945E+03
2.737844243E+01  1.629375732E+03
2.738862156E+01  1.628795776E+03
2.739880070E+01  1.628841797E+03
2.740897983E+01  1.628981567E+03
2.741915896E+01  1.628239014E+03
2.742933809E+01  1.626270508E+03
2.743951722E+01  1.624629395E+03
2.744969635E+01  1.626032593E+03
2.745987548E+01  1.626447998E+03
2.747005461E+01  1.625668701E+03
2.748023374E+01  1.625779419E+03
2.749041287E+01  1.624290039E+03
2.750059200E+01  1.622928101E+03
2.751077113E+01  1.622466553E+03
2.752095026E+01  1.620160522E+03
2.753112939E+01  1.618067871E+03
2.754130852E+01  1.617197876E+03
2.755148765E+01  1.616684448E+03
2.756166679E+01  1.617987549E+03
2.757184592E+01  1.618310913E+03
2.758202505E+01  1.617890381E+03
2.759220418E+01  1.618463501E+03
2.760238331E+01  1.618945801E+03
2.761256244E+01  1.619791382E+03
2.762274157E+01  1.619796021E+03
2.763292070E+01  1.618356079E+03
2.764309983E+01  1.616698608E+03
2.765327896E+01  1.614845459E+03
2.766345809E+01  1.614337280E+03
2.767363722E+01  1.614995850E+03
2.768381635E+01  1.614633057E+03
2.769399548E+01  1.612950073E+03
2.770417461E+01  1.613717896E+03
2.771435374E+01  1.614952637E+03
2.772453288E+01  1.615891357E+03
2.773471201E+01  1.618388428E+03
2.774489114E+01  1.619256958E+03
2.775507027E+01  1.618185425E+03
2.776524940E+01  1.616771362E+03
2.777542853E+01  1.615316650E+03
2.778560766E+01  1.615606689E+03
2.779578679E+01  1.616336426E+03
2.780596592E+01  1.616870117E+03
2.781614505E+01  1.616591797E+03
2.782632418E+01  1.617246338E+03
2.783650331E+01  1.616937866E+03
2.784668244E+01  1.615670898E+03
2.785686157E+01  1.615244507E+03
2.786704070E+01  1.615108765E+03
2.787721983E+01  1.615803711E+03
2.788739897E+01  1.617040283E+03
2.789757810E+01  1.617883789E+03
2.790775723E+01  1.618456055E+03
2.791793636E+01  1.619319946E+03
2.792811549E+01  1.619884277E+03
2.793829462E+01  1.621998413E+03
2.794847375E+01  1.624099854E+03
2.795865288E+01  1.624478271E+03
2.796883201E+01  1.624119995E+03
2.797901114E+01  1.624251465E+03
2.798919027E+01  1.623900269E+03
2.799936940E+01  1.623004272E+03
2.800954853E+01  1.623319336E+03
2.801972766E+01  1.623665161E+03
2.802990679E+01  1.623088623E+03
2.804008592E+01  1.624200684E+03
2.805026506E+01  1.626034790E+03
2.806044419E+01  1.627801758E+03
2.807062332E+01  1.629336182E+03
2.808080245E+01  1.630791504E+03
2.809098158E+01  1.630344238E+03
2.810116071E+01  1.629065430E+03
2.811133984E+01  1.628389038E+03
2.812151897E+01  1.630501221E+03
2.813169810E+01  1.633156006E+03
2.814187723E+01  1.632012939E+03
2.815205636E+01  1.629980347E+03
2.816223549E+01  1.627942871E+03
2.817241462E+01  1.625964844E+03
2.818259375E+01  1.626031006E+03
2.819277288E+01  1.627886475E+03
2.820295201E+01  1.626591919E+03
2.821313114E+01  1.622941895E+03
2.822331028E+01  1.621263672E+03
2.823348941E+01  1.619858887E+03
2.824366854E+01  1.617984741E+03
2.825384767E+01  1.618110596E+03
2.826402680E+01  1.617310669E+03
2.827420593E+01  1.614397217E+03
2.828438506E+01  1.611670288E+03
2.829456419E+01  1.610470947E+03
2.830474332E+01  1.608324219E+03
2.831492245E+01  1.606101440E+03
2.832510158E+01  1.604300293E+03
2.833528071E+01  1.602288574E+03
2.834545984E+01  1.600092896E+03
2.835563897E+01  1.598588501E+03
2.836581810E+01  1.598964600E+03
2.837599723E+01  1.600484497E+03
2.838617637E+01  1.600357666E+03
2.839635550E+01  1.598043091E+03
2.840653463E+01  1.595980469E+03
2.841671376E+01  1.594424072E+03
2.842689289E+01  1.591743530E+03
2.843707202E+01  1.589056396E+03
2.844725115E+01  1.586934082E+03
2.845743028E+01  1.585558960E+03
2.846760941E+01  1.585231323E+03
2.847778854E+01  1.584665527E+03
2.848796767E+01  1.583968384E+03
2.849814680E+01  1.583191040E+03
2.850832593E+01  1.582400391E+03
2.851850506E+01  1.581746460E+03
2.852868419E+01  1.579469482E+03
2.853886332E+01  1.577022827E+03
2.854904246E+01  1.576594116E+03
2.855922159E+01  1.577136597E+03
2.856940072E+01  1.576289917E+03
2.857957985E+01  1.574207642E+03
2.858975898E+01  1.573066284E+03
2.859993811E+01  1.572395508E+03
2.861011724E+01  1.571541870E+03
2.862029637E+01  1.571813232E+03
2.863047550E+01  1.573068970E+03
2.864065463E+01  1.571804565E+03
2.865083376E+01  1.568955933E+03
2.866101289E+01  1.569415283E+03
2.867119202E+01  1.569983887E+03
2.868137115E+01  1.568184570E+03
2.869155028E+01  1.567368530E+03
2.870172941E+01  1.567219238E+03
2.871190855E+01  1.566457153E+03
2.872208768E+01  1.564774048E+03
2.873226681E+01  1.563309082E+03
2.874244594E+01  1.562341431E+03
2.875262507E+01  1.561947510E+03
2.876280420E+01  1.561203491E+03
2.877298333E+01  1.560913574E+03
2.878316246E+01  1.560396362E+03
2.879334159E+01  1.560109009E+03
2.880352072E+01  1.559444702E+03
2.881369985E+01  1.558267700E+03
2.882387898E+01  1.558627441E+03
2.883405811E+01  1.556713501E+03
2.884423724E+01  1.554099854E+03
2.885441637E+01  1.552914551E+03
2.886459550E+01  1.551403198E+03
2.887477464E+01  1.548590698E+03
2.888495377E+01  1.546494995E+03
2.889513290E+01  1.543531860E+03
2.890531203E+01  1.542122803E+03
2.891549116E+01  1.540910034E+03
2.892567029E+01  1.539109985E+03
2.893584942E+01  1.538253906E+03
2.894602855E+01  1.537112915E+03
2.895620768E+01  1.535129272E+03
2.896638681E+01  1.532085205E+03
2.897656594E+01  1.527521240E+03
2.898674507E+01  1.523535522E+03
2.899692420E+01  1.520875610E+03
2.900710333E+01  1.517034668E+03
2.901728246E+01  1.512362427E+03
2.902746159E+01  1.506561523E+03
2.903764073E+01  1.501179565E+03
2.904781986E+01  1.498823730E+03
2.905799899E+01  1.494942749E+03
2.906817812E+01  1.488692871E+03
2.907835725E+01  1.484413086E+03
2.908853638E+01  1.480602905E+03
2.909871551E+01  1.476087524E+03
2.910889464E+01  1.472465576E+03
2.911907377E+01  1.468817993E+03
2.912925290E+01  1.464249512E+03
2.913943203E+01  1.459567261E+03
2.914961116E+01  1.455760742E+03
2.915979029E+01  1.451348633E+03
2.916996942E+01  1.445465332E+03
2.918014855E+01  1.441324585E+03
2.919032768E+01  1.436952393E+03
2.920050681E+01  1.430989868E+03
2.921068595E+01  1.424775024E+03
2.922086508E+01  1.418756836E+03
2.923104421E+01  1.413158081E+03
2.924122334E+01  1.407722778E+03
2.925140247E+01  1.402117432E+03
2.926158160E+01  1.396223022E+03
2.927176073E+01  1.390504883E+03
2.928193986E+01  1.384944946E+03
2.929211899E+01  1.380101807E+03
2.930229812E+01  1.374312378E+03
2.931247725E+01  1.367906616E+03
2.932265638E+01  1.361418335E+03
2.933283551E+01  1.355070679E+03
2.934301464E+01  1.349962280E+03
2.935319377E+01  1.344677002E+03
2.936337290E+01  1.338975464E+03
2.937355204E+01  1.333644165E+03
2.938373117E+01  1.327656372E+03
2.939391030E+01  1.321511719E+03
2.940408943E+01  1.315498291E+03
2.941426856E+01  1.309484375E+03
2.942444769E+01  1.304536987E+03
2.943462682E+01  1.298833374E+03
2.944480595E+01  1.290992188E+03
2.945498508E+01  1.285097778E+03
2.946516421E+01  1.280931030E+03
2.947534334E+01  1.276416626E+03
2.948552247E+01  1.270443237E+03
2.949570160E+01  1.263647217E+03
2.950588073E+01  1.258388306E+03
2.951605986E+01  1.253700684E+03
2.952623899E+01  1.247633057E+03
2.953641813E+01  1.239894287E+03
2.954659726E+01  1.232863647E+03
2.955677639E+01  1.227441406E+03
2.956695552E+01  1.222226074E+03
2.957713465E+01  1.218208862E+03
2.958731378E+01  1.213141479E+03
2.959749291E+01  1.206387085E+03
2.960767204E+01  1.200543335E+03
2.961785117E+01  1.196247803E+03
2.962803030E+01  1.191941284E+03
2.963820943E+01  1.185091553E+03
2.964838856E+01  1.178259399E+03
2.965856769E+01  1.173181641E+03
2.966874682E+01  1.169083984E+03
2.967892595E+01  1.164405518E+03
2.968910508E+01  1.159130981E+03
2.969928422E+01  1.154061035E+03
2.970946335E+01  1.149819824E+03
2.971964248E+01  1.145314941E+03
2.972982161E+01  1.141380859E+03
2.974000074E+01  1.137164429E+03
2.975017987E+01  1.132859497E+03
2.976035900E+01  1.128198120E+03
2.977053813E+01  1.123228271E+03
2.978071726E+01  1.119115723E+03
2.979089639E+01  1.115356689E+03
2.980107552E+01  1.112076782E+03
2.981125465E+01  1.108802002E+03
2.982143378E+01  1.105258179E+03
2.983161291E+01  1.100073242E+03
2.984179204E+01  1.094515503E+03
2.985197117E+01  1.089800537E+03
2.986215031E+01  1.086232788E+03
2.987232944E+01  1.083341064E+03
2.988250857E+01  1.080032104E+03
2.989268770E+01  1.075581543E+03
2.990286683E+01  1.070712036E+03
2.991304596E+01  1.067118530E+03
2.992322509E+01  1.063462402E+03
2.993340422E+01  1.059549561E+03
2.994358335E+01  1.056497681E+03
2.995376248E+01  1.054238281E+03
2.996394161E+01  1.053693726E+03
2.997412074E+01  1.051490723E+03
2.998429987E+01  1.047448975E+03
2.999447900E+01  1.043451416E+03
3.000465813E+01  1.038725098E+03
3.001483726E+01  1.034116089E+03
3.002501640E+01  1.031255371E+03
3.003519553E+01  1.029872925E+03
3.004537466E+01  1.028847656E+03
3.005555379E+01  1.027197876E+03
3.006573292E+01  1.025215454E+03
3.007591205E+01  1.023141785E+03
3.008609118E+01  1.020170044E+03
3.009627031E+01  1.017496216E+03
3.010644944E+01  1.016743469E+03
3.011662857E+01  1.016601379E+03
3.012680770E+01  1.015393433E+03
3.013698683E+01  1.013604675E+03
3.014716596E+01  1.013275940E+03
3.015734509E+01  1.012863037E+03
3.016752422E+01  1.012128723E+03
3.017770335E+01  1.012499268E+03
3.018788249E+01  1.012604614E+03
3.019806162E+01  1.011432251E+03
3.020824075E+01  1.010788452E+03
3.021841988E+01  1.011147949E+03
3.022859901E+01  1.010093140E+03
3.023877814E+01  1.009305725E+03
3.024895727E+01  1.008369202E+03
3.025913640E+01  1.007611633E+03
3.026931553E+01  1.007648682E+03
3.027949466E+01  1.008108459E+03
3.028967379E+01  1.007741699E+03
3.029985292E+01  1.006665100E+03
3.031003205E+01  1.005504395E+03
3.032021118E+01  1.004322815E+03
3.033039031E+01  1.003730713E+03
3.034056944E+01  1.004173096E+03
3.035074857E+01  1.004615356E+03
3.036092771E+01  1.004110901E+03
3.037110684E+01  1.003519653E+03
3.038128597E+01  1.002911072E+03
3.039146510E+01  1.001134583E+03
3.040164423E+01  9.997433472E+02
3.041182336E+01  9.988115234E+02
3.042200249E+01  9.981587524E+02
3.043218162E+01  9.969624023E+02
3.044236075E+01  9.960374146E+02
3.045253988E+01  9.955046997E+02
3.046271901E+01  9.944054565E+02
3.047289814E+01  9.933937988E+02
3.048307727E+01  9.942500610E+02
3.049325640E+01  9.954363403E+02
3.050343553E+01  9.955449829E+02
3.051361466E+01  9.955490112E+02
3.052379380E+01  9.944212646E+02
3.053397293E+01  9.937885132E+02
3.054415206E+01  9.939147339E+02
3.055433119E+01  9.928782349E+02
3.056451032E+01  9.923199463E+02
3.057468945E+01  9.916421509E+02
3.058486858E+01  9.904240723E+02
3.059504771E+01  9.905838623E+02
3.060522684E+01  9.906794434E+02
3.061540597E+01  9.881898804E+02
3.062558510E+01  9.862542114E+02
3.063576423E+01  9.855541382E+02
3.064594336E+01  9.851708374E+02
3.065612249E+01  9.851090088E+02
3.066630162E+01  9.851221313E+02
3.067648075E+01  9.853375244E+02
3.068665989E+01  9.846035767E+02
3.069683902E+01  9.832620239E+02
3.070701815E+01  9.829270630E+02
3.071719728E+01  9.824025269E+02
3.072737641E+01  9.822855225E+02
3.073755554E+01  9.825441895E+02
3.074773467E+01  9.814870605E+02
3.075791380E+01  9.800581665E+02
3.076809293E+01  9.799912109E+02
3.077827206E+01  9.791480103E+02
3.078845119E+01  9.778802490E+02
3.079863032E+01  9.774407349E+02
3.080880945E+01  9.778097534E+02
3.081898858E+01  9.774112549E+02
3.082916771E+01  9.763970337E+02
3.083934684E+01  9.753577271E+02
3.084952598E+01  9.778106079E+02
3.085970511E+01  9.879417725E+02
3.086988424E+01  9.949738770E+02
3.088006337E+01  9.982249756E+02
3.089024250E+01  1.002855042E+03
3.090042163E+01  1.006768127E+03
3.091060076E+01  1.007540527E+03
3.092077989E+01  1.008160522E+03
3.093095902E+01  1.008729980E+03
3.094113815E+01  1.008619080E+03
3.095131728E+01  1.008649109E+03
3.096149641E+01  1.009023926E+03
3.097167554E+01  1.010317932E+03
3.098185467E+01  1.012309753E+03
3.099203380E+01  1.013162659E+03
3.100221293E+01  1.012472229E+03
3.101239207E+01  1.011652039E+03
3.102257120E+01  1.012340210E+03
3.103275033E+01  1.012948242E+03
3.104292946E+01  1.011623474E+03
3.105310859E+01  1.012161194E+03
3.106328772E+01  1.014308594E+03
3.107346685E+01  1.015689575E+03
3.108364598E+01  1.016138733E+03
3.109382511E+01  1.016258179E+03
3.110400424E+01  1.016600281E+03
3.111418337E+01  1.016710449E+03
3.112436250E+01  1.015766296E+03
3.113454163E+01  1.014875732E+03
3.114472076E+01  1.015316040E+03
3.115489989E+01  1.015846924E+03
3.116507902E+01  1.015535156E+03
3.117525816E+01  1.014868408E+03
3.118543729E+01  1.015188477E+03
3.119561642E+01  1.015751770E+03
3.120579555E+01  1.015467163E+03
3.121597468E+01  1.015781494E+03
3.122615381E+01  1.016997314E+03
3.123633294E+01  1.017567383E+03
3.124651207E+01  1.017612000E+03
3.125669120E+01  1.017506897E+03
3.126687033E+01  1.016204224E+03
3.127704946E+01  1.015477783E+03
3.128722859E+01  1.015899231E+03
3.129740772E+01  1.016274109E+03
3.130758685E+01  1.016747253E+03
3.131776598E+01  1.016901001E+03
3.132794511E+01  1.017633667E+03
3.133812424E+01  1.016887634E+03
3.134830338E+01  1.014619995E+03
3.135848251E+01  1.014677490E+03
3.136866164E+01  1.015168335E+03
3.137884077E+01  1.014963867E+03
3.138901990E+01  1.015324524E+03
3.139919903E+01  1.015833069E+03
3.140937816E+01  1.015182800E+03
3.141955729E+01  1.012440674E+03
3.142973642E+01  1.011320801E+03
3.143991555E+01  1.011970398E+03
3.145009468E+01  1.011966553E+03
3.146027381E+01  1.012292053E+03
3.147045294E+01  1.013138916E+03
3.148063207E+01  1.011838989E+03
3.149081120E+01  1.008980286E+03
3.150099033E+01  1.007852356E+03
3.151116947E+01  1.006863403E+03
3.152134860E+01  1.005864563E+03
3.153152773E+01  1.006870239E+03
3.154170686E+01  1.008421448E+03
3.155188599E+01  1.009490906E+03
3.156206512E+01  1.011798279E+03
3.157224425E+01  1.012429138E+03
3.158242338E+01  1.011370850E+03
3.159260251E+01  1.009195618E+03
3.160278164E+01  1.008521423E+03
3.161296077E+01  1.009383362E+03
3.162313990E+01  1.008710388E+03
3.163331903E+01  1.007395813E+03
3.164349816E+01  1.006525024E+03
3.165367729E+01  1.005707458E+03
3.166385642E+01  1.005108215E+03
3.167403556E+01  1.005318115E+03
3.168421469E+01  1.005331116E+03
3.169439382E+01  1.003995422E+03
3.170457295E+01  1.002643005E+03
3.171475208E+01  1.002012939E+03
3.172493121E+01  1.002966675E+03
3.173511034E+01  1.004949463E+03
3.174528947E+01  1.004149780E+03
3.175546860E+01  1.002762634E+03
3.176564773E+01  1.003794922E+03
3.177582686E+01  1.003273926E+03
3.178600599E+01  1.001243042E+03
3.179618512E+01  1.000936951E+03
3.180636425E+01  1.001502563E+03
3.181654338E+01  1.000039185E+03
3.182672251E+01  9.984108276E+02
3.183690165E+01  9.984291382E+02
3.184708078E+01  9.975301514E+02
3.185725991E+01  9.961892700E+02
3.186743904E+01  9.967757568E+02
3.187761817E+01  9.978275146E+02
3.188779730E+01  9.960504761E+02
3.189797643E+01  9.936004028E+02
3.190815556E+01  9.928254395E+02
3.191833469E+01  9.928765259E+02
3.192851382E+01  9.928182983E+02
3.193869295E+01  9.923075562E+02
3.194887208E+01  9.910193481E+02
3.195905121E+01  9.906004639E+02
3.196923034E+01  9.903299561E+02
3.197940947E+01  9.896741333E+02
3.198958860E+01  9.875800171E+02
3.199976774E+01  9.848401489E+02
3.200994687E+01  9.841776123E+02
3.202012600E+01  9.841210327E+02
3.203030513E+01  9.835511475E+02
3.204048426E+01  9.829927368E+02
3.205066339E+01  9.814893799E+02
3.206084252E+01  9.796282349E+02
3.207102165E+01  9.807324829E+02
3.208120078E+01  9.814882202E+02
3.209137991E+01  9.806705322E+02
3.210155904E+01  9.802035522E+02
3.211173817E+01  9.800731812E+02
3.212191730E+01  9.793165283E+02
3.213209643E+01  9.773875122E+02
3.214227556E+01  9.767293701E+02
3.215245469E+01  9.758190918E+02
3.216263383E+01  9.737220459E+02
3.217281296E+01  9.702208252E+02
3.218299209E+01  9.699098511E+02
3.219317122E+01  9.723761597E+02
3.220335035E+01  9.721951294E+02
3.221352948E+01  9.711219482E+02
3.222370861E+01  9.712077637E+02
3.223388774E+01  9.804930420E+02
3.224406687E+01  1.009266235E+03
3.225424600E+01  1.039307739E+03
3.226442513E+01  1.053302856E+03
3.227460426E+01  1.059720825E+03
3.228478339E+01  1.063217529E+03
3.229496252E+01  1.069081055E+03
3.230514165E+01  1.074391357E+03
3.231532078E+01  1.078123535E+03
3.232549991E+01  1.080895142E+03
3.233567905E+01  1.082069946E+03
3.234585818E+01  1.082274414E+03
3.235603731E+01  1.082637939E+03
3.236621644E+01  1.084733765E+03
3.237639557E+01  1.087622925E+03
3.238657470E+01  1.087491089E+03
3.239675383E+01  1.084428101E+03
3.240693296E+01  1.086035767E+03
3.241711209E+01  1.091206055E+03
3.242729122E+01  1.091598267E+03
3.243747035E+01  1.090413574E+03
3.244764948E+01  1.090169434E+03
3.245782861E+01  1.090409790E+03
3.246800774E+01  1.091144897E+03
3.247818687E+01  1.090364746E+03
3.248836600E+01  1.091054565E+03
3.249854514E+01  1.090231567E+03
3.250872427E+01  1.089859619E+03
3.251890340E+01  1.089793823E+03
3.252908253E+01  1.086974976E+03
3.253926166E+01  1.086981812E+03
3.254944079E+01  1.088290283E+03
3.255961992E+01  1.088395630E+03
3.256979905E+01  1.088073975E+03
3.257997818E+01  1.084712891E+03
3.259015731E+01  1.082764282E+03
3.260033644E+01  1.082743530E+03
3.261051557E+01  1.082547607E+03
3.262069470E+01  1.078771362E+03
3.263087383E+01  1.074402588E+03
3.264105296E+01  1.070615845E+03
3.265123209E+01  1.071978638E+03
3.266141123E+01  1.074604858E+03
3.267159036E+01  1.073793457E+03
3.268176949E+01  1.071997803E+03
3.269194862E+01  1.072807129E+03
3.270212775E+01  1.074286377E+03
3.271230688E+01  1.073896362E+03
3.272248601E+01  1.070103149E+03
3.273266514E+01  1.066442993E+03
3.274284427E+01  1.066071167E+03
3.275302340E+01  1.063792847E+03
3.276320253E+01  1.060438110E+03
3.277338166E+01  1.058282715E+03
3.278356079E+01  1.054356201E+03
3.279373992E+01  1.050788208E+03
3.280391905E+01  1.046403442E+03
3.281409818E+01  1.045557495E+03
3.282427732E+01  1.044725952E+03
3.283445645E+01  1.042744019E+03
3.284463558E+01  1.040545288E+03
3.285481471E+01  1.039039307E+03
3.286499384E+01  1.037352783E+03
3.287517297E+01  1.034626709E+03
3.288535210E+01  1.029643555E+03
3.289553123E+01  1.023863953E+03
3.290571036E+01  1.016368225E+03
3.291588949E+01  1.008877197E+03
3.292606862E+01  1.010128967E+03
3.293624775E+01  1.011126465E+03
3.294642688E+01  1.001813538E+03
3.295660601E+01  9.941405029E+02
3.296678514E+01  9.896823730E+02
3.297696427E+01  9.872000732E+02
3.298714341E+01  9.836311035E+02
3.299732254E+01  9.804991455E+02
3.300750167E+01  9.747135010E+02
3.301768080E+01  9.676577148E+02
3.302785993E+01  9.636903076E+02
3.303803906E+01  9.578743896E+02
3.304821819E+01  9.525045776E+02
3.305839732E+01  9.458402100E+02
3.306857645E+01  9.409109497E+02
3.307875558E+01  9.345821533E+02
3.308893471E+01  9.263767090E+02
3.309911384E+01  9.200478516E+02
3.310929297E+01  9.072264404E+02
3.311947210E+01  8.998931274E+02
3.312965123E+01  8.991818848E+02
3.313983036E+01  8.923732300E+02
3.315000950E+01  8.862127686E+02
3.316018863E+01  8.815349731E+02
3.317036776E+01  8.779616699E+02
3.318054689E+01  8.701544800E+02
3.319072602E+01  8.577372437E+02
3.320090515E+01  8.436827393E+02
3.321108428E+01  8.382689209E+02
3.322126341E+01  8.372976074E+02
3.323144254E+01  8.341681519E+02
3.324162167E+01  8.296193237E+02
3.325180080E+01  8.254306030E+02
3.326197993E+01  8.260714722E+02
3.327215906E+01  8.274674683E+02
3.328233819E+01  8.252326660E+02
3.329251732E+01  8.202970581E+02
3.330269645E+01  8.160557251E+02
3.331287558E+01  8.116043701E+02
3.332305472E+01  8.134065552E+02
3.333323385E+01  8.161885376E+02
3.334341298E+01  8.158895874E+02
3.335359211E+01  8.112999268E+02
3.336377124E+01  8.074685059E+02
3.337395037E+01  8.103231201E+02
3.338412950E+01  8.074022827E+02
3.339430863E+01  8.007720947E+02
3.340448776E+01  7.889943848E+02
3.341466689E+01  7.825119019E+02
3.342484602E+01  7.866794434E+02
3.343502515E+01  7.911016235E+02
3.344520428E+01  7.904049072E+02
3.345538341E+01  7.898566284E+02
3.346556254E+01  7.883928833E+02
3.347574167E+01  7.845530396E+02
3.348592081E+01  7.769723511E+02
3.349609994E+01  7.770363159E+02
3.350627907E+01  7.818193970E+02
3.351645820E+01  7.847998657E+02
3.352663733E+01  7.806531982E+02
3.353681646E+01  7.759857178E+02
3.354699559E+01  7.787349243E+02
3.355717472E+01  7.781625977E+02
3.356735385E+01  7.662781982E+02
3.357753298E+01  7.576560669E+02
3.358771211E+01  7.655543213E+02
3.359789124E+01  7.694019775E+02
3.360807037E+01  7.703807983E+02
3.361824950E+01  7.888616943E+02
3.362842863E+01  8.141932983E+02
