E,DOS,dDOS,Velocity,dVelocity
0.247433,0.00255458,0.00366309,4819.441174355987,2303.583040851295
0.494867,0.00932347,0.0118738,4968.949418431582,2109.3853819024043
0.7423,0.019146200000000002,0.0200585,5122.597293542883,1788.897680935882
0.989733,0.0336221,0.0249606,5143.615872676486,1272.8546381248239
1.23717,0.0561097,0.0271572,5031.9738678175145,811.8342044056154
1.4846,0.08700219999999999,0.0289401,4909.391484929207,544.3558985062168
1.73203,0.12325,0.02999,4844.393392716649,392.9345915880847
1.97947,0.163293,0.0304986,4821.418898777003,300.18382938653934
2.2269,0.20644400000000002,0.033242900000000006,4823.1543551468585,258.9019142083855
2.47433,0.25156799999999996,0.03748680000000001,4844.155255919826,240.63195828944066
2.7217700000000002,0.298587,0.0385961,4875.38319351385,210.08961833633182
2.9692,0.34985900000000003,0.0491185,4900.721882293978,229.3657799246151
3.21663,0.41481899999999994,0.060647,4884.040962681515,238.0365031381047
3.4640699999999995,0.496806,0.0686491,4832.000100111781,222.583359304437
3.7115,0.578795,0.07196489999999998,4808.277145101818,199.30232144488699
3.9589300000000005,0.645133,0.0823373,4841.354694837893,205.98648301129361
4.20637,0.692463,0.0936617,4923.465461779619,222.0014465221785
4.4538,0.732322,0.100422,5020.163779966543,229.4896029975643
4.701230000000001,0.8026770000000001,0.112603,5047.684074513744,236.05754685659156
4.94867,0.926133,0.12953800000000001,4980.037908674366,232.20591761290325
5.1961,1.04519,0.13483499999999998,4941.41532159184,212.51140251108347
5.44353,1.1259,0.153366,4972.238055796263,225.78758578878973
5.69097,1.2043,0.17111600000000002,5008.150919671814,237.21872571530636
5.9384,1.29,0.175102,5035.560683455016,227.8601551790141
6.18583,1.42545,0.203043,5005.100050152367,237.66445909354718
6.433269999999999,1.59988,0.214772,4943.753654174667,221.24177683693
6.6807,1.7160799999999998,0.228858,4952.60367733638,220.18247851288055
6.92813,1.84012,0.252869,4957.46978599848,227.10552347461407
7.17557,2.01251,0.25745999999999997,4925.568468259447,210.06433329876575
7.423,2.15903,0.288862,4921.5079063418025,219.50795627776415
7.6704300000000005,2.28192,0.304097,4938.303469780968,219.3866359456296
7.91787,2.41466,0.330877,4949.770022655764,226.1070030671597
8.1653,2.5724,0.331462,4946.9027100880985,212.49670828460174
8.41273,2.76377,0.351826,4927.070465720944,209.09300269240686
8.660169999999999,2.97953,0.385683,4898.913784926254,211.40035585193272
8.9076,3.19132,0.42148599999999997,4878.823707450991,214.80745904260235
9.15503,3.4240199999999996,0.426363,4853.546439091122,201.47871500357675
9.40247,3.67755,0.441342,4824.361925782038,193.01319428905046
9.6499,3.92049,0.5223800000000001,4805.071608109616,213.43554159801027
9.89733,4.149380000000001,0.538856,4795.299494360163,207.6003812811811
10.1448,4.298030000000001,0.502257,4818.042403931245,187.69834546824208
10.3922,4.42895,0.525663,4847.332870255039,191.7966768040423
10.6396,4.6854,0.583857,4832.435675735241,200.7486329610744
10.8871,4.72593,0.570732,4893.021817229377,196.99349701211844
11.1345,4.4587,0.57808,5064.180400539894,218.88293386144315
11.3819,4.55992,0.6258630000000001,5100.611061131414,233.37940797429528
11.6294,5.19685,0.694855,4953.622617303641,220.7991099045926
11.8768,5.7707,0.721644,4851.26392238864,202.24405702692295
12.1242,6.0328,0.764346,4846.116582685504,204.68690416010858
12.3717,6.06947,0.774017,4901.933736442562,208.39711218764177
12.6191,6.101319999999999,0.759158,4958.409899033065,205.6731672903607
12.8665,6.54029,0.841258,4908.016944699117,210.45633591095228
13.114,7.24987,0.8556549999999999,4802.987823095957,188.9783956676621
13.3614,7.80702,0.9161159999999999,4744.65150388329,185.61040297342362
13.6088,8.26512,1.00115,4712.611141375144,190.30100721032207
13.8563,8.66375,1.05175,4695.274492898933,190.0189288417115
14.1037,8.85803,1.04649,4716.006892504197,185.7395804577281
14.3511,8.89793,0.9963290000000001,4763.855406790695,177.8322357430492
14.5986,8.90548,1.00769,4817.1089346220615,181.71592186813422
14.846,9.23173,1.128,4813.304960387643,196.06406478043715
15.0934,9.88697,1.14174,4756.6561124072805,183.12192064116513
15.3409,10.2118,1.19305,4756.978971256746,185.27672783332068
15.5883,10.1664,1.18118,4815.132159282,186.50522669520495
15.8357,10.6923,1.2421,4784.823301234756,185.30419479470032
16.0832,11.6778,1.35148,4694.536677373294,181.1238595998436
16.3306,12.1138,1.30836,4684.96193850341,168.692392974721
16.578,12.2821,1.37998,4710.445531490667,176.44114811018466
16.8255,12.643,1.39077,4711.509224237483,172.78478551913912
17.0729,12.8097,1.40552,4736.853834384628,173.2721027309139
17.3203,12.6695,1.47033,4800.0808650325935,185.71112715449135
17.5678,12.7506,1.4580899999999999,4835.404580769927,184.34111527507125
17.8152,13.2598,1.49722,4817.402304639494,181.34212783805248
18.0626,13.8019,1.54705,4797.393288875048,179.2704894723419
18.3101,14.388,1.6795200000000001,4774.4693183557765,185.7989463597519
18.5575,15.6091,1.7853599999999998,4688.33314407694,178.77305442494264
18.8049,17.3024,1.8099599999999998,4570.285618141192,159.3869491803756
19.0524,18.7818,1.9458,4485.926591498692,154.93918449087553
19.2998,19.4349,2.01737,4473.415188597292,154.80689614928212
19.5472,19.1092,1.9847599999999999,4537.050795067025,157.10387545296982
19.7947,18.8771,1.8406099999999999,4593.943289552081,149.33760739074086
20.0421,19.9585,2.03945,4546.923241557887,154.90050654925807
20.2895,21.6848,2.20438,4459.236729697529,151.12710558178452
20.537,22.6687,2.37071,4429.423813188106,154.4350504180082
20.7844,23.204,2.44203,4430.323929121368,155.44243420196463
21.0318,24.2167,2.41731,4402.277489137672,146.5035909268931
21.2793,25.5471,2.4595599999999997,4358.353590166499,139.89343877896712
21.5267,26.4835,2.54305,4339.682445967411,138.93029662415148
21.7741,26.8398,2.50695,4353.432576429117,135.56959672060535
22.0216,27.4235,2.5989299999999997,4355.015699806403,137.60146820979332
22.269,28.5027,2.66857,4331.482678581141,135.20503405497516
22.5164,29.3031,2.72022,4323.407983444239,133.80792154998457
22.7639,29.7162,2.76943,4334.7573761614185,134.6872172928486
23.0113,30.5278,2.8058400000000003,4327.067859226758,132.59525408477774
23.2587,32.7182,2.9668799999999997,4258.519067618027,128.7473985768522
23.5062,36.3674,3.19493,4140.145835490988,121.2662489721903
23.7536,39.7658,3.41089,4046.825615849941,115.73172284256911
24.001,41.4625,3.4363300000000003,4018.517237022468,111.04329687969273
24.2485,42.3245,3.4864699999999997,4018.4393012888627,110.36718609618453
24.4959,44.2912,3.6640599999999997,3984.9348338071322,109.91422029101865
24.7433,47.9332,3.8309599999999997,3907.4285479697855,104.12560394923365
24.9908,51.2897,4.01537,3845.694891877775,100.3853754687486
25.2382,52.6888,4.0608699999999995,3836.462183271362,98.59065949904067
25.4856,53.9333,4.251469999999999,3831.5604584468483,100.70623502756334
25.7331,56.701,4.3402,3792.532153152769,96.79526182333016
25.9805,60.2664,4.27476,3739.9979064686727,88.45747779221485
26.2279,64.7129,4.69549,3675.4469980479626,88.92428170842233
26.4754,70.4234,5.00283,3595.733225078027,85.1750652976819
26.7228,74.9072,5.16472,3544.4176626911094,81.48983628680082
26.9702,77.6572,5.15859,3523.657117949331,78.05313744328885
27.2177,81.409,5.33902,3489.8619493642436,76.32190257945848
27.4651,87.0727,5.56421,3433.1403513101423,73.1600654869097
27.7125,93.3943,5.84286,3373.9744231455425,70.39078702495826
27.96,97.8953,5.895980000000001,3341.1984396994494,67.10893910666883
28.2074,99.9574,5.92535,3337.60671220265,65.98189401079406
28.4548,101.962,6.07029,3334.9476076049564,66.2138517741608
28.7023,105.42,6.31994,3317.173862622014,66.31992451157174
28.9497,108.00299999999999,6.157719999999999,3309.397067888902,62.92753303322454
29.1971,108.49700000000001,6.31355,3323.1657817563173,64.49208990436803
29.4446,109.17399999999999,6.38258,3334.9971782566267,65.023303337333
29.692,112.34100000000001,6.61137,3321.8369519799103,65.19662869254275
29.9394,115.391,6.6479800000000004,3310.5706093668828,63.6097376626697
30.1869,115.167,6.615660000000001,3330.9473268328957,63.81417926107729
30.4343,112.709,6.69957,3373.293414044151,66.87008188754304
30.6817,109.69200000000001,6.62632,3422.362959596846,68.94554882164634
30.9292,108.134,6.60303,3457.1891464337045,70.40159666523472
31.1766,108.292,6.80036,3473.9093497147624,72.7480765398627
31.424,106.55,6.693230000000001,3511.1921628223,73.55365694339885
31.6715,102.43799999999999,6.41025,3576.213985294101,74.62875638998986
31.9189,99.6765,6.50884,3627.709117489203,78.99445153832706
32.1663,98.3237,6.605339999999999,3663.0774968970004,82.05910141915979
32.4138,96.536,6.43855,3704.4320920838754,82.38848121151595
32.6612,95.6037,6.4250300000000005,3735.3212939656564,83.70896745479048
32.9086,96.5913,6.62781,3741.3215884916435,85.60397444004052
33.1561,97.2823,6.7913,3751.1329445801607,87.31986092736317
33.4035,95.9566,6.41713,3787.0508640004414,84.45246176270982
33.6509,92.7106,6.44365,3849.6339096369798,89.21848191197068
33.8984,89.9774,6.45153,3907.2670285807367,93.41700031753768
34.1458,90.3839,6.640289999999999,3920.3599298564664,96.03699880108154
34.3932,92.3995,6.74492,3910.4189498623537,95.1807058551891
34.6407,92.2543,6.6875100000000005,3931.2168992760935,95.02223586946322
34.8881,90.2402,6.639419999999999,3979.082726292125,97.61787013760967
35.1355,87.4938,6.57795,4039.272053980954,101.25741730686427
35.383,84.1049,6.44536,4112.0094851819385,105.0716362726937
35.6304,81.1722,6.47686,4180.319398601533,111.21473624943971
35.8778,79.749,6.58087,4224.482935323145,116.23039176824078
36.1253,80.089,6.6376800000000005,4237.874814388249,117.10587808159161
36.3727,81.2452,6.69792,4236.909901498378,116.4607970215354
36.6201,80.4497,6.5605899999999995,4270.082967003422,116.10354378925098
36.8676,77.6815,6.31993,4339.657777300331,117.71759215287501
37.115,75.881,6.49998,4393.258255499851,125.471738860153
37.3624,76.3607,6.59806,4403.4998161667145,126.85944457469915
37.6099,76.6232,6.5446800000000005,4417.868618721094,125.81190025710468
37.8573,74.6306,6.5071699999999995,4476.365629270907,130.1300054527464
38.1047,72.6837,6.7186699999999995,4535.63531243753,139.78169108474486
38.3522,74.5678,6.65215,4516.560686831601,134.33551682092144
38.5996,82.3638,7.07443,4388.0797985892095,125.66353002930835
38.847,90.7902,7.628989999999999,4266.025415923437,119.51865484184272
39.0945,90.7631,7.32653,4284.552225175734,115.3154378958138
39.3419,85.2178,6.9942899999999995,4393.981456645754,120.24327580081287
39.5893,83.7322,7.2845699999999995,4438.3255412214485,128.73827447597648
39.8368,85.8015,7.26225,4420.683702374901,124.75226094999653
40.0842,87.1476,7.44802,4415.99367017182,125.83299062303054
40.3316,86.4015,7.5735,4446.872174981206,129.9587835651407
40.5791,84.1376,7.33962,4504.739409272777,131.01762140290847
40.8265,81.5803,7.2309600000000005,4569.806100522105,135.0460683935972
41.0739,80.625,7.318810000000001,4606.299343646552,139.40938114999312
41.3214,82.4189,7.454969999999999,4590.984776296038,138.45054935840994
41.5688,84.7873,7.66155,4565.967636633286,137.55886684921774
41.8162,84.7065,7.44607,4585.523281446361,134.3922963760492
42.0637,82.6699,7.199339999999999,4641.096685024287,134.75435293904698
42.3111,79.5158,7.084289999999999,4720.085211437187,140.20557382868498
42.5585,77.6884,7.224,4775.332193090057,148.04372382504033
42.806,78.8758,7.6957699999999996,4769.6510990757715,155.15003255306385
43.0534,79.8006,7.350280000000001,4769.443293457809,146.46434672197418
43.3008,79.4322,7.25173,4795.0873413703375,145.95185868238636
43.5483,80.0298,7.6145,4801.331210244424,152.30435258108815
43.7957,80.4296,7.42662,4811.499565732939,148.1227659664671
44.0431,80.821,7.615139999999999,4821.793629329585,151.46939837487176
44.2906,82.5037,7.796069999999999,4806.710945352774,151.4301802310753
44.538,81.4145,7.72642,4846.013946705576,153.32840712010753
44.7854,74.8969,7.19495,5001.126001207081,160.17368165303648
45.0329,68.8415,6.843139999999999,5162.59362810514,171.09098884118262
45.2803,68.1308,7.39037,5199.43883087035,188.02742166531766
45.5277,70.9762,7.5452,5147.673560725737,182.43730181449234
45.7752,72.2262,7.352010000000001,5136.335110260493,174.3071798643805
46.0226,68.9515,7.253660000000001,5235.172137872384,183.60752065521325
46.27,64.8953,6.818789999999999,5361.175496164882,187.80202870375194
46.5175,65.3047,6.989739999999999,5369.009886957376,191.58192161013775
46.7649,69.141,7.23793,5286.475537506515,184.4979889842535
47.0123,69.9793,7.57787,5283.834915276862,190.75197293638968
47.2598,66.1503,6.94908,5402.756808544203,189.21568205284336
47.5072,64.4302,7.48378,5469.419511785182,211.79061040194583
47.7546,66.7599,7.65049,5423.791935992114,207.210633292443
48.0021,69.1414,7.75595,5379.297221601817,201.1686444779034
48.2495,69.8722,7.33045,5378.879865500762,188.1327720982868
48.4969,70.7338,7.7888,5375.247033303083,197.3250141403801
48.7444,72.1679,7.94372,5357.554147673335,196.6014096449855
48.9918,73.1915,7.751939999999999,5350.489144007241,188.9245349327146
49.2392,75.7267,8.23851,5307.896192374352,192.51461951548396
49.4867,81.2697,8.68646,5201.726928148415,185.35556784516328
49.7341,86.6538,8.626669999999999,5108.637383621927,169.5565297126846
49.9815,89.3794,9.11738,5072.925501534391,172.5207765057127
50.229,92.078,8.99271,5039.442580478601,164.086939836654
50.4764,98.1885,9.239939999999999,4948.840757568562,155.26544956159023
50.7238,106.97200000000001,10.015,4825.206692605982,150.6123019554825
50.9713,113.43700000000001,10.16,4747.121365289697,141.7558094081918
51.2187,114.522,9.873,4747.381852501281,136.45620713241323
51.4661,114.146,10.0988,4767.880695285377,140.63982429589527
51.7136,117.17399999999999,10.4671,4741.592221001294,141.2184254414205
51.961,122.04,10.9522,4692.623449274913,140.406127745778
52.2084,120.82,10.6233,4723.298773407275,138.46534064130293
52.4559,113.072,10.0617,4844.0577220844825,143.71376576453764
52.7033,107.92,10.2188,4935.403518587467,155.80536726809274
52.9507,107.868,9.707139999999999,4951.632074534444,148.56541271696182
53.1982,108.869,9.92861,4951.779752915603,150.5614541729206
53.4456,106.78200000000001,9.732619999999999,4999.271543456952,151.91715204804225
53.693,100.14200000000001,9.92494,5123.158578095166,169.2793462591312
53.9405,92.2454,9.15932,5281.531140957199,174.83670882350995
54.1879,85.521,8.87899,5433.029494510044,188.05317863967832
54.4353,78.3722,8.678410000000001,5610.4518586870145,207.11685070111247
54.6828,70.0225,8.00878,5842.7781682102805,222.78390550462342
54.9302,63.1004,7.558789999999999,6067.291419882613,242.29567215857674
55.1776,59.9752,8.08208,6189.412226189523,278.04852624719655
55.4251,56.182,7.452260000000001,6344.587104729911,280.55320362369406
55.6725,48.0885,6.878769999999999,6702.109382756373,319.59222517732553
55.9199,38.9161,6.35326,7213.276715736598,392.5604969736667
56.1674,32.4443,6.46588,7686.728056904399,510.65576883970664
56.4148,28.5094,5.75001,8048.793436549538,541.1384028104104
56.6622,26.8775,5.56142,8232.481637498162,567.8370581919547
56.9097,25.9695,5.8468599999999995,8351.563236702006,626.7874851634133
57.1571,21.5448,5.4165,8913.824391484859,747.0176813293166
57.4045,14.7682,4.18213,10138.791911903347,957.0711039243191
57.652,10.5376,3.91954,11378.729885972949,1410.8190251589504
57.8994,10.3524,4.64294,11478.905129284489,1716.0697715699546
58.1468,11.0905,4.43435,11250.321750728228,1499.433429021707
58.3943,7.9854199999999995,3.48325,12587.683727808293,1830.2708549817366
58.6417,3.2418299999999998,3.4409699999999996,17047.959095487764,6031.737741624458
58.8891,2.45566,4.10214,18754.204114783075,10442.87050321075
59.1366,4.43714,4.096419999999999,15440.734764977136,4751.699063975982
59.384,6.01154,3.48841,13993.160765573466,2706.690271927708
59.6314,6.8593399999999995,4.29102,13428.288586998444,2800.1385634075236
59.8789,6.25624,3.88277,13884.902929744896,2872.445459656497
60.1263,4.82475,3.8293199999999996,15182.716653276473,4016.763479311237
60.3737,4.85613,4.014819999999999,15191.47229266957,4186.542218583083
60.6212,5.75416,3.9783199999999996,14395.29205975294,3317.558296277637
60.8686,5.58259,3.71474,14580.812881345992,3234.110487247135
61.116,4.19161,3.83759,16085.741970893037,4909.061101237464
61.3635,2.77156,3.82516,18513.850786459316,8517.285719235522
61.6109,2.54483,3.7415800000000004,19099.27502108257,9360.35309726538
61.8583,4.92395,4.13754,15368.290031892198,4304.611078141962
62.1058,7.608039999999999,4.3697,13328.929890286207,2551.8498711946604
62.3532,5.51352,3.93762,14878.56176028034,3541.979190149883
62.6006,0.86966,2.90279,27610.0549637774,30719.36303962901
62.8481,-1.56355,3.2128,-22766.116276211007,15593.362982945939
63.0955,-1.94734,2.7599,-21215.328868563858,10022.601108408755
63.3429,-1.55387,3.17889,-22932.875156457398,15638.613563410165
63.5904,-1.72232,3.2416400000000003,-22217.12518109937,13938.555075425737
63.8378,-1.40114,3.26445,-23861.04921098381,18530.91689669083
64.0852,1.18341,4.1868,25308.021233191008,29845.851624970903
64.3327,3.9830900000000002,4.299519999999999,16930.86909033763,6091.9802962047825
64.5801,5.239,4.16177,15492.248278969993,4102.268200820085
64.8275,4.85257,3.8383199999999995,15933.591743904937,4201.099724594541
65.075,3.3674,3.6305699999999996,18043.023762386347,6484.385322968826
65.3224,3.1625099999999997,3.7137599999999997,18471.21904001628,7230.307542413236
65.5698,3.56529,3.5088199999999996,17792.448798307247,5836.889445542692
65.8173,1.62999,3.4030099999999996,23154.20286426955,16113.394332906451
66.0647,-1.80687,3.21381,-22428.5973747613,13297.634324680152
66.3121,-4.488919999999999,2.56744,-16601.449356422967,3165.085629346476
66.5596,-5.3734,3.16589,-15674.325128115448,3078.338624612803
66.807,-3.8287199999999997,3.42509,-17592.526616911735,5245.975686916406
67.0544,0.547787,4.10947,33719.33899361801,84320.253575397
67.3019,0.372819,3.26627,38428.22368334467,112223.31924623859
67.5493,-1.37529,2.72647,-24931.4332582085,16475.272970753562
67.7967,-0.818071,3.66085,-29717.126295559592,44327.83589453656
68.0442,2.73868,4.34788,19913.38470578829,10538.053124976237
68.2916,5.0852900000000005,4.51018,16240.686739373812,4801.337464754741
68.539,4.32191,4.11932,17186.919464174895,5460.437223187389
68.7865,3.3501800000000004,4.06021,18754.732176683858,7576.532208898255
69.0339,3.3270199999999996,4.22486,18843.196394977957,7976.101874241555
69.2813,3.44679,4.40156,18666.827598302898,7945.871189912647
69.5288,3.1212299999999997,3.56039,19340.424593006057,7353.88987219817
69.7762,1.6615900000000001,4.03824,23920.028453055573,19377.99411841857
70.0236,-0.20956999999999998,3.6482,-47809.92081116727,277425.4490786153
70.2711,-1.00604,2.95348,-28408.231004857596,27799.80875538167
70.5185,-0.252791,4.00435,-45124.55654901454,238266.02377961492
70.7659,1.14016,4.16303,27375.298397186336,33318.190179172496
71.0134,0.807041,3.57904,30788.824667682522,45513.77383383554
71.2608,-0.939923,2.93597,-29331.513686375878,30540.253251828162
71.5082,-1.97045,3.05125,-22971.015602178784,11856.91279938905
71.7557,-2.10508,3.7497599999999998,-22522.305289388187,13372.933589251148
72.0031,-1.30389,3.6208400000000003,-26482.069282601093,24513.15092075299
72.2505,0.260706,3.6881800000000005,45391.5488077515,214049.803119347
72.498,0.576786,4.1817400000000005,34914.8799277378,84378.4666247401
72.7454,-0.0874992,3.6546199999999995,-65614.59247332752,913518.4557137525
72.9928,-0.00587521,3.99864,-161799.43097987454,36706641.220527165
73.2403,0.401217,3.21485,39673.91635471925,105965.67725967872
73.4877,-0.606618,3.5182900000000004,-34644.644683935265,66977.85270591715
73.7351,-2.20309,3.44553,-22589.339976741732,11776.232947446537
73.9826,-2.14415,3.38985,-22845.43564735969,12039.371181393386
74.23,-1.23662,3.81753,-27506.73166022376,28305.055233435898
74.4774,-1.1775200000000001,3.83446,-28021.519368765265,30416.302209452373
74.7249,-1.7941599999999998,3.29964,-24405.51317925561,14961.402240563852
74.9723,-2.18752,3.18493,-22895.38677452026,11111.557560434676
75.2197,-1.5046899999999999,3.8927,-25993.82308791818,22415.731492414518
