E,DOS,dDOS,Velocity,dVelocity
0.249529,0.012339900000000001,0.00518137,3208.8105008515254,449.11489866689544
0.49905900000000003,0.0484181,0.0164444,3229.480103230412,365.6151781381298
0.748588,0.107878,0.0266161,3240.0487508232027,266.46899973272593
0.998117,0.19414,0.0337589,3226.8830526188144,187.04453938488317
1.24765,0.314756,0.040295599999999994,3187.4088512130083,136.02483563135957
1.49718,0.471846,0.0466307,3144.9700813316704,103.60894750018997
1.7467099999999998,0.656787,0.053943399999999996,3121.569111088175,85.46915205711805
1.99623,0.859194,0.0594842,3119.9232201379746,72.0103398486581
2.2457599999999998,1.07361,0.06872080000000001,3133.242280327747,66.86312969799818
2.4952900000000002,1.2995700000000001,0.07774969999999999,3153.901007517674,62.90839831225715
2.7448200000000003,1.5346899999999999,0.0888965,3179.5790354136766,61.40456728796053
2.99435,1.76742,0.0997092,3214.566289268057,60.463000048138234
3.24388,2.0257400000000003,0.108895,3240.0313946013603,58.07038833673335
3.49341,2.38302,0.12953299999999998,3224.713060157105,58.44169930666279
3.74294,2.79739,0.15046400000000001,3200.797288177842,57.40092770182294
3.9924699999999995,3.11605,0.15920299999999998,3223.494260489384,54.91183755646015
4.242,3.43805,0.176696,3248.206612979961,55.66075441229926
4.49153,3.92772,0.20492800000000003,3227.8744135165666,56.151969432463815
4.74106,4.41065,0.223927,3219.4624820643876,54.49804491540196
4.99059,4.86418,0.24856999999999999,3224.521781980443,54.94100351104417
5.24012,5.27147,0.26359,3243.0290687646925,54.06861822329922
5.48965,5.7021,0.288021,3258.7578768807766,54.88280315954599
5.73917,6.33473,0.310994,3241.0865056219227,53.05376299910856
5.9887,7.28402,0.356973,3182.721185369207,52.00737503581929
6.238230000000001,8.19431,0.387732,3144.6384831311334,49.61363518604069
6.48776,8.87593,0.418274,3143.1069615883744,49.38764458623017
6.73729,9.29641,0.44176899999999997,3173.844688601456,50.28929861432565
6.98682,9.60873,0.471249,3216.115516371982,52.59179681827296
7.23635,10.0887,0.5045850000000001,3239.1811741155934,54.01713557753438
7.48588,10.8606,0.531586,3232.7930266074018,52.75942162864337
7.735410000000001,11.7757,0.5701930000000001,3216.3298420020465,51.927908884696365
7.984939999999999,12.6869,0.605738,3204.5215663786203,51.015389771378295
8.23447,13.8182,0.673479,3179.1221082240363,51.66343270451012
8.484,14.7758,0.688524,3171.3976844478716,49.27583210419052
8.73353,15.5187,0.7354930000000001,3180.841517035328,50.26617948794809
8.98306,16.4268,0.761858,3180.2833093663044,49.18167861238709
9.23259,17.375,0.8203030000000001,3178.884106741768,50.04213638284584
9.48211,18.1721,0.8394889999999999,3187.881868610496,49.10544776635928
9.731639999999999,19.3615,0.9099,3175.7401219894305,49.76368212095048
9.98117,20.6811,0.959037,3159.587277424674,48.85495267780014
10.2307,21.9073,0.967893,3150.947841458068,46.42054341657548
10.4802,23.0165,1.0389700000000002,3149.685700980748,47.40837594760792
10.7298,23.5065,1.05083,3177.1108004618563,47.35914365140098
10.9793,23.936,1.1351799999999999,3206.7603770692303,50.70959335900155
11.2288,25.3404,1.20306,3193.87813972297,50.559450897431496
11.4783,27.6091,1.23871,3149.693038444368,47.12067917883793
11.7279,30.3348,1.32893,3096.4712856111423,45.23359761784342
11.9774,31.9128,1.37957,3087.5973897913113,44.50786519371793
12.2269,32.1311,1.3585,3123.222862632965,44.03332580463779
12.4765,33.2128,1.44379,3130.8381469388773,45.38315324433777
12.726,34.5559,1.51489,3130.7938782342185,45.766347978146264
12.9755,35.955,1.5684200000000001,3129.8983742527435,45.526864902894644
13.2251,37.9607,1.659,3113.067268237352,45.36642215247871
13.4746,40.1518,1.6921700000000002,3093.6856363183183,43.47711170059425
13.7241,42.7661,1.7849700000000002,3066.596481659802,42.68120788949698
13.9736,44.9149,1.8878,3053.345798906776,42.794501547811784
14.2232,46.6519,1.90103,3050.7669448330607,41.45584859586387
14.4727,49.6404,2.06058,3023.118808766166,41.846591402963426
14.7222,52.4722,2.04705,3001.737084330911,39.05217304968121
14.9718,53.9884,2.11627,3006.8825073042985,39.30597804017014
15.2213,54.8207,2.19865,3024.7320240710824,40.45398740585255
15.4708,55.8393,2.21126,3038.9889826001145,40.13253651336199
15.7203,58.6776,2.35245,3021.2294210041555,40.39194908203831
15.9699,62.9121,2.46489,2983.028046436873,38.975564273380435
16.2194,66.5105,2.59963,2958.6508575443268,38.56449845430639
16.4689,69.1373,2.6596,2950.571814562024,37.85201589540258
16.7185,71.6552,2.69444,2944.983742965481,36.93107402533019
16.968,74.5545,2.72313,2935.1462732561404,35.75403237821112
17.2175,77.9646,2.87555,2919.99097367716,35.91711660468928
17.4671,81.1134,3.03844,2909.490445162262,36.34668734491317
17.7166,82.7663,3.02347,2917.447206329464,35.543143667782445
17.9661,84.9879,3.17921,2918.8880726428433,36.4141335281137
18.2156,87.2898,3.2452799999999997,2919.723692581492,36.2012420045955
18.4652,88.6272,3.2425,2931.4394890320614,35.76793963684946
18.7147,91.7432,3.38518,2923.9137072607764,35.98062772304956
18.9642,95.6927,3.53643,2908.689397798665,35.84918028664089
19.2138,98.933,3.54145,2901.76597361302,34.64273853708984
19.4633,102.288,3.68255,2894.4764583769916,34.75371659602613
19.7128,104.635,3.70163,2897.1689170992263,34.182612925882665
19.9623,108.699,3.88657,2884.6899089087897,34.39937155093285
20.2119,114.149,3.9944599999999997,2861.637750619687,33.39806019209263
20.4614,117.77600000000001,4.15524,2855.213333541047,33.596541571085595
20.7109,119.07799999999999,4.16666,2867.8476085891743,33.4682693832169
20.9605,120.228,4.2099,2881.59638621303,33.65267704731199
21.21,120.54299999999999,4.23224,2901.886218552149,33.980337868516436
21.4595,121.286,4.28155,2918.614759075747,34.36240435689711
21.7091,123.594,4.3598300000000005,2922.779255841617,34.38626098430086
21.9586,124.959,4.399719999999999,2934.367592445957,34.45796937756554
22.2081,123.469,4.43987,2968.398650849716,35.59937359310454
22.4576,123.69,4.54376,2988.80763862459,36.61651433523421
22.7072,124.78299999999999,4.7296,3002.09558233357,37.947086573102766
22.9567,123.58200000000001,4.65971,3033.810841576829,38.148657806180495
23.2062,120.885,4.67439,3078.3109120190256,39.69555379681538
23.4558,118.369,4.58282,3122.1572527066755,40.311221149508796
23.7053,118.366,4.683730000000001,3144.285065531276,41.49107849682569
23.9548,122.14200000000001,4.82637,3133.338319868563,41.28871225263998
24.2043,127.686,4.94181,3108.7170153244374,40.12365158161761
24.4539,130.459,4.9661,3107.716109583824,39.45171778673462
24.7034,132.611,5.05751,3111.8016249289394,39.57778643446901
24.9529,135.464,5.2649300000000006,3110.570043425746,40.31656608668529
25.2025,135.69299999999998,5.30572,3129.5161737786093,40.807179412920995
25.452,134.114,5.20391,3162.4512345099783,40.92182432423288
25.7015,133.39600000000002,5.234719999999999,3188.785531713415,41.72987319333733
25.951,133.084,5.34754,3211.8953213613295,43.03797163748016
26.2006,132.45,5.38618,3237.6067978119668,43.90468640191611
26.4501,133.191,5.44072,3252.074743274891,44.29944527983377
26.6996,135.131,5.52955,3256.757630357697,44.440188932174536
26.9492,136.892,5.56361,3262.9105013479834,44.22235376783077
27.1987,139.513,5.69229,3262.329361688217,44.38710642215446
27.4482,139.083,5.551769999999999,3285.6287948101954,43.73615183938676
27.6978,137.493,5.71108,3318.2104000975814,45.961269617084035
27.9473,137.36,5.71903,3339.1844560172112,46.36092964120532
28.1968,138.013,5.84194,3353.7226968006075,47.33782798402687
28.4463,136.722,5.8109,3384.0620882402686,47.96076068603837
28.6959,134.82,5.80699,3419.760765729236,49.1168953135099
28.9454,133.465,5.86949,3451.1553281921897,50.609191892107646
29.1949,130.695,5.9153400000000005,3495.3092249641336,52.75087948139187
29.4445,124.848,5.75791,3569.2436232969417,54.88801236903392
29.694,119.124,5.70731,3645.97186523968,58.24428513296958
29.9435,119.156,5.77694,3666.0383390826805,59.263013494261465
30.193,122.175,5.7805800000000005,3655.757067830105,57.67365609371
30.4426,124.10799999999999,6.03371,3656.693008496034,59.27577609147138
30.6921,123.684,5.99245,3680.841882105882,59.46247961537438
30.9416,120.824,5.78188,3729.7355613511613,59.511654549929226
31.1912,119.09299999999999,5.92863,3767.8468624379616,62.54025545621718
31.4407,119.809,5.958559999999999,3780.352139498507,62.68774601961981
31.6902,119.45299999999999,6.0621,3804.096854721306,64.36820280233572
31.9398,119.5,5.99156,3823.544003671895,63.91969581614978
32.1893,124.788,6.23175,3788.355092137219,63.079090427633076
32.4388,129.389,6.3682300000000005,3762.2241552609653,61.740067649307555
32.6883,129.55700000000002,6.35961,3779.8554803107236,61.865210596901335
32.9379,131.054,6.5342,3784.5517110352466,62.91504496679592
33.1874,139.078,6.73848,3729.036267269719,60.242788142342725
33.4369,149.11700000000002,6.9796,3661.6392198624985,57.14692941305029
33.6865,154.33100000000002,7.23612,3637.9227252183787,56.87475868404054
33.936,154.053,7.07028,3658.0613116893896,55.980506890775516
34.1855,153.92600000000002,7.110760000000001,3676.979674286039,56.638642266364144
34.435,155.321,7.09128,3683.7538132606537,56.07973158705928
34.6846,154.532,7.278160000000001,3707.8223501720736,58.22833790855555
34.9341,151.95,7.339339999999999,3746.5661426762626,60.338629479689075
35.1836,148.518,7.1410100000000005,3793.1593278039436,60.81189390913238
35.4332,140.859,7.08241,3878.936317566539,65.02869671356879
35.6827,128.687,6.88506,4016.3126501007664,71.64449323912366
35.9322,111.584,6.3458,4231.449509780831,80.23132672089156
36.1818,95.4503,5.90885,4478.180688099229,92.42369840190361
36.4313,83.093,5.55789,4711.532945939574,105.06370572612751
36.6808,72.438,5.41732,4954.551136523095,123.52477746914198
36.9303,62.0881,5.08545,5239.458039632619,143.0639790754635
37.1799,54.2323,4.73947,5505.795417595815,160.40184888722305
37.4294,47.625,4.73717,5775.162119827453,191.4947438345639
37.6789,42.3547,4.63753,6032.058432298503,220.16796342524304
37.9285,38.9781,4.32798,6228.796696770292,230.5533922393338
38.178,38.4738,4.48217,6283.298433649729,244.01218203973423
38.4275,39.512,4.695930000000001,6254.88048704194,247.805728863483
38.677,40.0804,4.80506,6252.088315615805,249.8568357140953
38.9266,37.9482,4.572780000000001,6394.42043035741,256.85585391475615
39.1761,35.3455,4.512169999999999,6575.619722566026,279.8239885497633
39.4256,33.5131,4.31019,6721.733239985821,288.1772854780797
39.6752,31.4316,4.52337,6895.903673184293,330.81094105122884
39.9247,29.0663,4.31062,7107.74420533934,351.37753920516735
40.1742,27.3899,4.62985,7280.0653116277645,410.2049213840596
40.4238,23.9139,3.9783199999999996,7648.481506743528,424.1446352151537
40.6733,18.351,3.7095599999999997,8388.551229484603,565.2435605546199
40.9228,16.567,3.8925400000000003,8714.909259477976,682.5527092194702
41.1723,15.9066,3.75549,8869.753800996235,698.0473404345084
41.4219,13.4268,3.5597800000000004,9423.157213093271,832.7795211747919
41.6714,13.4106,3.4859400000000003,9464.76693421215,820.0961142173562
41.9209,15.1114,3.99782,9131.723738284898,805.293657350122
42.1705,12.0394,3.59555,9889.43510958873,984.4961944592213
42.42,7.789560000000001,3.33944,11479.15887526337,1640.405219306839
42.6695,5.87576,3.3753599999999997,12659.725411499698,2424.152740790139
42.919,5.13638,3.38436,13291.722952604285,2919.309331696314
43.1686,5.15813,3.408,13324.425141750298,2934.5073935895944
43.4181,5.29249,3.5749400000000002,13261.5552979523,2985.9502427279667
43.6676,5.09989,3.41094,13477.82704291543,3004.779155462588
43.9172,4.62906,3.39175,13973.099719188656,3412.739030632427
44.1667,1.8656700000000002,3.0482,18988.279877723024,10341.251761017375
44.4162,0.519583,3.19011,29186.132862963485,59731.85932620927
44.6657,2.64985,3.26752,17019.348545341836,6995.501219027211
44.9153,4.65192,3.76979,14160.743520211885,3825.1650060430097
45.1648,4.59905,3.26155,14267.392755909352,3372.716682743928
45.4143,6.2297,3.49779,12942.156233528318,2422.2162992993026
45.6639,6.7393600000000005,3.5799,12653.472176883031,2240.483497563379
45.9134,3.9007199999999997,3.1939900000000003,15238.60845092672,4159.233213567035
46.1629,1.78925,3.3655,19830.74272001557,12433.585300441475
46.4125,1.69058,3.4495,20282.05699225406,13794.66752273944
46.662,3.42918,3.3406599999999997,16079.754175865375,5221.5622207546985
46.9115,5.84265,3.7088900000000002,13510.87644373731,2858.8876274288027
47.161,5.34581,3.4906800000000002,13966.409236768835,3039.9099742183216
47.4106,2.99663,3.25559,16998.34056673451,6155.766039342532
47.6601,3.19754,3.60417,16692.904303712938,6271.914994817613
47.9096,4.1831,3.6406,15316.147750529832,4443.277133728626
48.1592,2.28154,3.36366,18810.950753457015,9244.291498411143
48.4087,-0.372195,3.07356,-34545.59691742529,95091.70007118711
48.6582,-0.9065129999999999,3.4959300000000004,-25763.99938526666,33119.26856114715
48.9077,1.04962,3.41583,24619.244803516478,26706.541540596194
49.1573,4.23612,3.71831,15515.645991723024,4539.691411246716
49.4068,5.82067,3.8168599999999997,14003.41923939342,3060.883344908047
49.6563,4.06652,3.50454,15834.67665444479,4548.795916247844
49.9059,1.43374,3.23677,22489.427169736362,16923.829268501442
50.1554,0.833514,3.61844,27035.93739900564,39122.686547244215
50.4049,1.22185,3.52409,23878.652026374304,22957.134869898968
50.6545,1.27999,3.39204,23589.04882096472,20837.403661328295
50.904,1.5226600000000001,3.61381,22335.768172722008,17670.22451030364
51.1535,1.95145,3.4424,20629.95874771057,12130.567110984404
51.403,1.29827,3.37494,23708.526861858154,20543.97100931263
51.6526,0.824842,3.7381300000000004,27667.619991949276,41795.94950981677
51.9021,-1.68275,3.35046,-21885.20840144903,14524.939922176836
52.1516,-3.12101,2.8822200000000002,-17869.564598946232,5500.789561506901
52.4012,0.733132,3.8079699999999996,29053.64969422722,50302.64182731288
52.6507,4.50504,3.743,15912.453545282679,4406.943667226164
52.9002,6.66666,3.8864400000000003,14007.78196794592,2722.028395055307
53.1497,6.4699599999999995,3.65162,14192.773739475606,2670.120962313834
53.3993,3.00542,3.3641,18383.262337111082,6859.070890744594
53.6488,-0.163373,3.08482,-48679.620032066116,306390.6230012042
53.8983,0.302761,3.3553699999999997,39754.289934966975,146859.90221128383
54.1479,3.22206,3.7918800000000004,18129.137262521184,7111.759440934534
54.3974,4.90043,3.5107199999999996,15812.770381421476,3776.1504630734485
54.6469,3.82093,3.85574,17232.750199544244,5796.586064975536
54.8965,2.44373,3.4631199999999995,20062.234247311568,9477.03555269181
55.146,0.492982,3.3681400000000004,34310.96422986933,78139.5214906915
55.3955,-0.9709270000000001,3.12259,-27454.996828357245,29432.595242197858
55.645,1.09016,3.81019,26494.432186502567,30866.669789084463
55.8946,1.6448599999999998,3.90276,23168.83454083461,18324.236642762116
56.1441,-1.65575,2.69975,-23186.672501669254,12602.191384183752
56.3936,-2.70457,2.98563,-19746.39122002332,7266.152109225126
56.6432,-0.52517,3.29326,-34200.50220623736,71488.69118582687
56.8927,1.28786,3.3763099999999997,25435.995801415567,22228.041223602722
57.1422,2.42453,3.61274,20659.955578130935,10261.654953621399
57.3917,1.21338,3.07528,26097.628715826122,22047.922377423376
57.6413,-0.675616,3.13132,-31814.355930829748,49150.66752806319
57.8908,-2.37342,2.83704,-20988.53380193314,8362.803939003143
58.1403,-3.3924199999999995,2.57958,-18685.966825344945,4736.2456289479705
58.3899,-2.65381,3.3338,-20337.730047330577,8516.30344663686
58.6394,0.502498,3.10303,35518.02694057745,73110.41046241902
58.8889,3.9424300000000003,3.77261,17925.374204444353,5717.7507587259215
59.1385,2.98698,3.51631,19718.32548756856,7737.556465693538
59.388,-0.266904,2.58659,-44229.77247441991,142878.1984231996
59.6375,-0.9700559999999999,2.8715599999999997,-28847.92745067716,28465.216097852375
59.887,1.15329,3.35488,27307.134496794773,26478.4997032046
60.1366,2.44983,3.50861,21301.713055562872,10169.33532912285
60.3861,2.47522,3.22096,21287.30350973246,9233.600884364483
60.6356,3.3833800000000003,3.6821800000000002,19233.96374920519,6977.535033076776
60.8852,3.4221699999999995,3.26661,19213.562507135084,6113.398070577969
61.1347,2.3464400000000003,3.2871900000000003,21848.55094236225,10202.741620413328
61.3842,1.7709599999999999,3.3157900000000002,24062.20462151887,15017.322618351944
61.6337,0.691792,2.73992,33005.59612791281,43574.1267494132
61.8833,0.9730690000000001,3.14305,29537.134717294302,31802.02614789653
62.1328,1.3310600000000001,2.8717099999999998,26679.765351620812,19186.85363293308
62.3823,1.3049899999999999,2.98712,26928.10509281253,20546.132348576935
62.6319,1.7983200000000001,2.94455,24262.86038632905,13242.586364708353
62.8814,0.677312,2.9827,33686.23528675706,49448.37707745014
63.1309,-0.603216,2.6727,-35105.161003979425,51847.4129093736
63.3804,-1.8994799999999998,2.64454,-24013.695994968755,11144.313524907737
63.63,-1.9707700000000001,2.62931,-23782.81371478149,10576.646674657462
63.8795,-1.1437899999999999,3.05182,-28586.402646135066,25424.411732233282
64.129,-0.214272,3.15762,-50089.70073255878,246049.01141870403
64.3786,0.356096,2.70702,42397.40279968312,107434.15509862649
64.6281,-0.27002,2.04842,-46613.983069402944,117874.00480359001
64.8776,-1.7532900000000002,2.62637,-25050.276936116104,12508.16386030792
65.1272,-1.91219,2.62455,-24398.615894450588,11162.665240867625
65.3767,-1.44613,2.09042,-26848.095524109325,12936.553461904103
65.6262,-1.2588700000000002,2.58582,-28189.788013984566,19301.365359765026
65.8757,-1.9154400000000003,1.82267,-24571.28734594146,7793.750096975958
66.1253,-2.21812,2.36116,-23457.624169508676,8323.450675694632
66.3748,-3.31176,2.15542,-20575.471576043587,4463.774990449605
66.6243,-3.85149,1.29725,-19614.599610788657,2202.194682707351
66.8739,-1.48235,2.75787,-27032.618447397876,16764.475806399587
67.1234,0.739554,2.8538799999999998,34168.55404150364,43951.24515423154
67.3729,0.861867,2.60137,32549.476624910058,32747.99102801013
67.6224,-0.470175,2.10412,-39933.84629599685,59570.44896848506
67.872,-2.18335,1.9616200000000001,-23994.95338692695,7186.055106888205
68.1215,-1.99403,1.9571900000000002,-24792.072796569548,8111.350936814929
68.371,-0.556239,2.05107,-38035.99155638967,46751.1777711949
68.6206,-0.746283,2.2936900000000002,-34570.24234339284,35417.049067865184
68.8701,-0.77199,1.98967,-34264.982710785436,29437.348132173836
69.1196,-0.637509,2.5223400000000002,-36610.5261351163,48283.86658956543
69.3692,-1.55893,2.11285,-27239.733353046297,12306.195487735753
69.6187,-1.7871700000000001,1.92334,-26089.309442265967,9359.050339645206
69.8682,-0.657327,2.43607,-36500.023624179084,45089.99679397435
70.1177,-0.36639099999999997,2.10879,-44456.72248884268,85291.29968476054
70.3673,-1.84444,1.4233,-26001.177364197494,6688.121805799864
70.6168,-2.54231,1.44751,-23418.718163644604,4444.632385957038
70.8663,-2.3864900000000002,1.4836799999999999,-23974.003561402336,4968.218653249456
71.1159,-1.98236,1.6951599999999998,-25563.33813410462,7286.599257085848
71.3654,-1.2715100000000001,2.19827,-29711.128139426313,17122.187154335526
71.6149,-0.47812899999999997,2.24645,-41259.234319077426,64617.714606430076
71.8644,-0.163678,1.4899200000000001,-59117.08785419745,179376.03559241348
72.114,-0.466818,2.36983,-41782.82423911681,70704.35229459753
72.3635,-1.31682,1.59249,-29639.543079701594,11948.152362424897
72.613,-0.1848,1.96943,-57166.665907000934,203076.74515451654
72.8626,1.02855,2.40485,32331.702422559978,25198.22542294247
73.1121,0.42957799999999996,1.7912299999999999,43352.361673552456,60256.07600031297
73.3616,0.798542,2.26877,35338.42652371483,33467.14751041671
73.6112,1.6434099999999998,1.9549299999999998,27845.04278316883,11041.09458142854
73.8607,2.32667,2.36259,24854.094714357692,8412.60606948676
74.1102,1.5941299999999998,2.3233900000000003,28256.04312820012,13727.410172064649
74.3597,0.146412,2.1158200000000003,62767.301979473865,302352.97951022064
74.6093,-0.21894699999999997,1.76137,-55011.00470104847,147516.27010483426
74.8588,-0.983605,1.10156,-33413.5226786215,12473.509883578276
75.1083,-2.29042,1.21456,-25265.089747310496,4465.853696238504
