E,DOS,dDOS,Velocity,dVelocity
0.247763,0.00871371,0.00858787,3482.8080225366207,1144.1707553463657
0.49552700000000005,0.033781900000000004,0.026114299999999997,3519.301389221788,906.838295246995
0.74329,0.0758512,0.041758300000000005,3521.7428718976607,646.2750525369485
0.9910540000000001,0.14082,0.0541139,3471.2271616034227,444.63905398468216
1.23882,0.229877,0.0667172,3420.94875097482,330.9557536278363
1.48658,0.334286,0.0795922,3409.775064501543,270.6202311854199
1.7343400000000002,0.44789799999999996,0.08976110000000001,3427.699350729465,228.9788661266094
1.9821099999999998,0.571267,0.0980804,3454.9761910891098,197.7304514621417
2.22987,0.7139770000000001,0.108222,3469.481362007819,175.30051262280503
2.47763,0.878985,0.118913,3472.7225110924464,156.60565139541697
2.7254,1.0629600000000001,0.131995,3473.394641565465,143.77592482961694
2.97316,1.2683200000000001,0.141192,3470.3678407017155,128.780869214886
3.22092,1.50064,0.171713,3460.9930097492993,132.01434459527366
3.46869,1.76206,0.187136,3446.749312120943,122.02322655439067
3.71645,2.02034,0.213311,3448.130110630394,121.358107958103
3.96421,2.2201400000000002,0.22233000000000003,3488.3274933660073,116.44833564373285
4.2119800000000005,2.3761200000000002,0.24141500000000002,3550.9210233140016,120.26372865251324
4.45974,2.63175,0.274169,3565.3137379568398,123.81358815853423
4.7075,3.10938,0.31758600000000003,3496.2989124108417,119.04020723556819
4.95527,3.70166,0.355978,3413.6498839457763,109.432315770425
5.20303,4.15515,0.378436,3393.2426791504927,103.02036369047859
5.4508,4.45311,0.41139799999999993,3420.2561044172267,105.33171001255056
5.69856,4.77059,0.42427600000000004,3443.174145774282,102.07959424302058
5.94632,5.126,0.47084799999999993,3458.4294461997392,105.8968568057682
6.19409,5.38807,0.490494,3495.2657447646175,106.06769078733718
6.44185,5.58997,0.504123,3544.1343978066147,106.54672605995677
6.689610000000001,6.05019,0.571749,3539.841349620935,111.51182778242084
6.93738,6.80404,0.659457,3487.5007217997954,112.67656066565783
7.18514,7.7165,0.711232,3423.3894331981683,105.18385794546084
7.4329,8.31845,0.752352,3415.0546612752632,102.96250067857659
7.68067,8.56381,0.728459,3456.8722673338502,98.0228463424846
7.9284300000000005,8.843580000000001,0.8383299999999999,3493.1858912140856,110.38477992936319
8.17619,9.36842,0.8561559999999999,3497.718081688172,106.5549461993951
8.423960000000001,10.1159,0.9341879999999999,3477.8882585763167,107.0649095221449
8.67172,11.2801,0.983474,3419.312421935172,99.37869686938305
8.91948,12.5363,1.09581,3363.639945887263,98.01213109882494
9.16725,13.3962,1.0797700000000001,3350.722372523626,90.03203211300232
9.41501,13.8076,1.1415,3376.608641407538,93.05633097095641
9.66277,13.8858,1.19826,3429.128258469153,98.64362037078239
9.91054,14.2049,1.161,3461.187196225024,94.30338258957094
10.1583,15.1577,1.28309,3443.307882696473,97.16409769026718
10.4061,16.3514,1.35569,3411.771617863813,94.2958796567776
10.6538,17.001,1.46231,3420.9847659973516,98.08924976829185
10.9016,17.1485,1.4563700000000002,3463.83916915338,98.06392656241829
11.1494,17.905,1.56912,3465.8983838836334,101.25161856158279
11.3971,19.7095,1.71325,3406.2561713989094,98.70227798009863
11.6449,21.2476,1.79381,3369.976076952044,94.8417754488466
11.8926,21.6941,1.7801900000000002,3393.9877067189377,92.8416594186674
12.1404,22.3525,1.8707799999999999,3406.849110578507,95.05091349508325
12.3882,23.5103,1.89415,3395.411000658322,91.1921696900907
12.6359,24.5164,1.9992299999999998,3392.799198878824,92.23006099370244
12.8837,26.0395,2.0876099999999997,3368.6492338399835,90.02887411055103
13.1315,28.2996,2.39513,3318.3515661356237,93.6218785368029
13.3792,30.2801,2.44234,3285.0395187680197,88.32798987616275
13.627,31.4337,2.39761,3284.2882925372137,83.50967809554763
13.8748,30.6233,2.3425599999999998,3353.0505000935527,85.50492575434956
14.1225,30.017,2.30672,3415.5309895829982,87.49793942855682
14.3703,31.6253,2.6555299999999997,3395.7726650934746,95.05211059900289
14.618,33.596,2.67781,3366.167457114122,89.4411882603673
14.8658,34.6137,2.72078,3370.407802928052,88.31579493722768
15.1136,35.9369,2.8835599999999997,3365.4102654929225,90.01930253898905
15.3613,39.0694,3.1713299999999998,3308.6132367920354,89.5280752742643
15.6091,43.2329,3.1017900000000003,3233.1068328378947,77.3276789093342
15.8569,46.6311,3.3517099999999997,3185.8591725509596,76.33682732655127
16.1046,47.8891,3.42581,3190.5141332562102,76.08593645188874
16.3524,48.426,3.61657,3211.2028332198947,79.94659494679635
16.6001,50.1015,3.5758,3206.9818072657686,76.3020639290203
16.8479,51.7665,3.8525300000000002,3203.7148384101247,79.48135856671452
17.0957,52.9114,4.1799800000000005,3211.548197014862,84.57648019509163
17.3434,54.2499,4.09796,3215.6056467219673,80.97383663777325
17.5912,57.5065,4.263319999999999,3183.6911857316813,78.68218399548456
17.839,62.3939,4.4435,3127.3217290117136,74.24600311492885
18.0867,66.0185,4.4073199999999995,3097.3523211644065,68.9322332282655
18.3345,68.0679,4.494669999999999,3093.8899808323827,68.10580153152745
18.5823,69.8977,4.69191,3094.223065837972,69.24058606379636
18.83,73.1708,4.95763,3074.4012530837017,69.4413858599168
19.0778,77.398,4.98197,3043.7937281132886,65.31496960462702
19.3255,79.8294,5.47619,3038.5925863158895,69.48780500227453
19.5733,79.9618,5.070469999999999,3062.8198331022163,64.74626036545625
19.8211,83.1786,5.38627,3048.275642638063,65.80461093376574
20.0688,90.6695,5.89065,2986.529433467856,64.68358289994448
20.3166,95.3031,5.90129,2961.451426926129,61.13283053065628
20.5644,95.8665,6.04071,2979.6231563881447,62.59082266283022
20.8121,96.7097,6.10003,2994.7473792200144,62.97239807858696
21.0599,103.182,6.15934,2953.9909387769326,58.78591051908377
21.3077,110.85799999999999,6.51408,2906.7541791555363,56.94164017191207
21.5554,113.05,6.27364,2910.1819201103667,53.8408211166565
21.8032,112.64399999999999,6.8665199999999995,2935.961845100171,59.66376091170445
22.0509,114.07700000000001,6.637580000000001,2945.7176631667353,57.13990902787823
22.2987,120.26100000000001,7.274719999999999,2915.978801512952,58.80418634305578
22.5465,125.838,7.559139999999999,2893.4884718390817,57.9449381280031
22.7942,124.059,6.89088,2928.5079940674304,54.22945217953218
23.042,120.78,7.2847100000000005,2976.1492679444127,59.84180416846766
23.2898,120.27,7.35372,3001.6796341637437,61.18505992632126
23.5375,118.684,7.26745,3036.330904525966,61.98264362189328
23.7853,115.745,7.308730000000001,3083.2680228991253,64.90511942289434
24.0331,113.564,7.0381100000000005,3124.3947898216356,64.5522146838876
24.2808,111.839,7.38243,3161.917291802351,69.57935242746461
24.5286,111.64,7.293819999999999,3185.2840553234664,69.3758205827201
24.7763,115.685,7.740819999999999,3168.8733823866287,70.68665164508239
25.0241,119.889,7.51386,3152.236558964198,65.86145215641432
25.2719,119.756,7.84693,3174.1864884099223,69.33610154225339
25.5196,116.85799999999999,7.9066600000000005,3221.088780271461,72.65390331852905
25.7674,114.477,7.59961,3264.2287772868285,72.23987075036564
26.0152,115.27799999999999,8.01331,3277.4965097163426,75.94988751867231
26.2629,116.26100000000001,8.148439999999999,3288.9457111536803,76.84504079174717
26.5107,116.95100000000001,8.07194,3303.0799553541888,75.9999035018526
26.7584,119.98700000000001,8.66543,3295.3506402004714,79.33666725238118
27.0062,121.85799999999999,7.643039999999999,3298.606982644868,68.97176253486883
27.254,122.29700000000001,8.60711,3314.778419213591,77.77042008615382
27.5017,122.37899999999999,8.53626,3334.0875238449476,77.52768895923649
27.7495,121.999,8.073889999999999,3357.563905366525,74.07547196251714
27.9973,125.225,8.84338,3348.266544095409,78.82525644032923
28.245,129.013,8.61496,3334.69535219284,74.23329552241063
28.4928,129.27200000000002,8.870410000000001,3351.929430565757,76.67513433261473
28.7406,126.439,8.67031,3396.329409015001,77.6397068222058
28.9883,123.38,8.97865,3443.8152568952382,83.5452859565826
29.2361,119.90299999999999,9.05002,3496.572564263633,87.97823643869829
29.4838,117.227,8.86774,3542.84938879017,89.34105046343868
29.7316,118.925,8.830910000000001,3545.6353643494244,87.76891497167804
29.9794,120.815,9.18388,3546.6195850448476,89.87371227045145
30.2271,118.21,9.091389999999999,3592.1339163440516,92.09595088076198
30.4749,115.906,8.704260000000001,3635.5140129126075,91.01339749139937
30.7227,112.23100000000001,8.91574,3694.6636867098146,97.84290490933783
30.9704,107.86200000000001,9.10874,3763.9859155106033,105.9605270063934
31.2182,107.09299999999999,9.0863,3793.0725287912737,107.28108575111689
31.466,108.823,9.10275,3792.803971297469,105.75943717174187
31.7137,106.54899999999999,8.86393,3839.6156452550513,106.48092463026221
31.9615,103.682,8.829889999999999,3894.842643780782,110.57263678327809
32.2092,105.08,8.65518,3897.5007455834448,107.01630178191321
32.457,110.32,9.45636,3854.4324196641614,110.13761129342285
32.7048,113.632,9.628210000000001,3836.0157748461065,108.3506165732938
32.9525,110.22,9.10707,3894.7391830322476,107.27639198868657
33.2003,104.74600000000001,9.46767,3981.271477079582,119.95828290486016
33.4481,101.39299999999999,9.08008,4044.6838460688864,120.74509993708911
33.6958,100.387,9.32817,4078.160296102322,126.32367692566369
33.9436,100.891,9.23299,4091.2943675016404,124.8109995488362
34.1914,102.82,9.51521,4085.309766208546,126.02811686631873
34.4391,102.21,9.253789999999999,4113.166933670228,124.13815629052031
34.6869,99.3218,9.18441,4172.551777220657,128.62048050607228
34.9346,97.9268,9.19903,4212.2059621474,131.90190598139398
35.1824,99.672,9.73847,4207.255174640575,137.03002236315118
35.4302,105.91799999999999,9.83562,4142.209702811831,128.22289296703923
35.6779,114.963,10.3856,4049.3603808785583,121.9446473042806
35.9257,122.713,10.4245,3980.5789101052674,112.72412069298544
36.1735,127.193,10.4265,3951.3504868760497,107.97640421296649
36.4212,137.829,11.4779,3864.520081046591,107.28140762222584
36.669,153.106,12.5924,3748.3624370489038,102.7698338673767
36.9167,162.601,12.1228,3690.459529027236,91.72215507595223
37.1645,166.757,11.841,3675.900731250902,87.01332727758688
37.4123,170.667,12.6728,3663.807861568649,90.69222957047633
37.66,176.07299999999998,12.6899,3641.907340535799,87.50056949766744
37.9078,177.733,13.2826,3646.4419109137752,90.84441430310953
38.1556,178.933,13.1641,3654.1102506860016,89.6184449442657
38.4033,179.388,13.683,3666.8023714864726,93.23692501926476
38.6511,168.732,12.6725,3758.504059866165,94.10082478107446
38.8989,146.511,11.5209,3956.4687418223198,103.71329161616434
39.1466,128.524,11.6252,4150.568227643633,125.14874708490125
39.3944,116.228,10.6912,4310.14957303838,132.163029862541
39.6421,104.381,10.8397,4486.11311944786,155.29697128594907
39.8899,89.078,9.54549,4749.246909202171,169.647852353171
40.1377,71.987,8.5857,5119.842089247845,203.5498338444925
40.3854,59.0879,8.364419999999999,5490.640514026374,259.0889151954365
40.6332,50.6256,8.10324,5804.572308616349,309.7028166655314
40.881,43.0995,7.184810000000001,6149.35925628533,341.71082295496996
41.1287,37.6955,7.56424,6456.142216388854,431.84958104947555
41.3765,32.5691,7.245080000000001,6805.711231599534,504.6539299516852
41.6243,24.294,6.34919,7534.212916616968,656.3550125178509
41.872,16.7269,5.7209699999999994,8566.108801875922,976.6033738595461
42.1198,13.7347,5.7670699999999995,9183.835100639528,1285.4049898763385
42.3675,9.97724,4.48286,10256.315105985652,1536.0870584478125
42.6153,8.3026,6.2161599999999995,10946.583594349286,2731.906068430204
42.8631,9.04406,5.0593699999999995,10680.071895030424,1991.5286359748943
43.1108,10.1447,5.41977,10318.516304819035,1837.546492912171
43.3586,9.69364,5.338030000000001,10516.247721726444,1930.3422842633745
43.6064,5.07937,4.19728,13093.923799442073,3606.674376450407
43.8541,0.060276800000000005,3.8275699999999997,57623.06327210657,1219686.0058549482
44.1019,0.829946,4.27112,24132.06710449699,41396.6515939284
44.3497,3.29886,4.7559,15291.336033102585,7348.405293843345
44.5974,4.57506,4.47949,13763.018652743625,4491.841528283525
44.8452,6.31128,5.47248,12409.218463458415,3586.6596898789776
45.0929,6.00849,5.02157,12660.667392248388,3527.035285023895
45.3407,3.8027300000000004,5.11883,14800.165998142433,6640.803898247842
45.5885,3.25093,5.04713,15650.94620546809,8099.464352508429
45.8362,5.6131,5.4855,13093.158147184722,4265.174503969624
46.084,6.74131,5.28031,12362.081865924243,3227.645299975178
46.3318,3.3049699999999995,5.319,15733.90575077468,8440.68774197751
46.5795,-1.1573200000000001,4.454680000000001,-22401.907433380315,28742.65027572588
46.8273,-0.0511175,5.70365,-63598.83291853576,2365435.733939665
47.075,4.22278,5.58499,14654.364964613575,6460.554653775363
47.3228,5.10187,5.33482,13807.342424411489,4812.595968246175
47.5706,4.64905,5.46584,14291.482548842707,5600.784571127158
47.8183,4.1016,4.92734,14952.64157117196,5987.64482202713
48.0661,2.80641,5.51914,17027.405823967623,11162.142804935671
48.3139,3.62603,5.19795,15687.143499454314,7495.893626295181
48.5616,6.64053,6.4090300000000004,12865.717569671237,4139.067710295398
48.8094,6.142919999999999,5.148680000000001,13249.016138282142,3701.5506373413464
49.0572,1.56281,4.55624,20980.02719786393,20388.497685972092
49.3049,-2.46811,4.418819999999999,-18076.381030951394,10787.780298311241
49.5527,-5.44244,4.0765,-13934.346368112701,3479.0405747018685
49.8004,-6.09427,4.11685,-13463.384837775453,3031.634130428374
50.0482,-3.4216599999999997,4.95754,-16373.931165851227,7907.900083469668
50.296,0.742638,5.8315,27336.076333305762,71551.38407802074
50.5437,4.43337,5.51542,15118.416214006347,6269.454878115181
50.7915,4.58571,5.8919,14997.933833301284,6423.312897341877
51.0393,3.16358,5.3706,17028.764343306957,9636.20288120232
51.287,3.72214,5.73398,16182.547814003241,8309.773696169568
51.5348,2.4249099999999997,5.62677,18727.283773121104,14484.953718748475
51.7826,-0.545229,5.34501,-30896.018903536107,100960.34924570852
52.0303,-1.9819,5.4901800000000005,-20158.11462233396,18613.73501172395
52.2781,0.07397000000000001,5.52687,60510.99024692504,1507081.144126506
52.5258,1.0909,5.35007,24752.918170246798,40465.01280442104
52.7736,0.520307,5.90677,31780.753804271473,120263.35977743425
53.0214,2.6274599999999997,4.58784,18582.10996287917,10815.48466539931
53.2691,3.0224900000000003,5.891,17789.683364162443,11557.693289732419
53.5169,-2.64277,4.38226,-18661.524214008856,10314.89239850416
53.7647,-7.12927,4.43994,-13446.917279082572,2791.4768046165345
54.0124,-5.30834,5.02232,-14881.578828343934,4693.249285687254
54.2602,-1.31661,6.26384,-23757.905284329412,37676.48744615751
54.508,0.166163,5.49397,47508.17266394017,523599.26794468303
54.7557,-2.04026,4.42815,-20655.259462696024,14943.29088293825
55.0035,-3.26808,5.29446,-17706.617003346375,9561.882574523293
55.2512,-1.75695,4.77417,-21841.423780801277,19783.275289174744
55.499,-0.013699100000000002,5.81756,-110475.42887713831,15638434.544850782
55.7468,-2.12787,4.84881,-20612.84168002729,15656.934175340106
55.9945,-6.40739,4.69688,-14316.695799892255,3498.2449306992557
56.2423,-7.179310000000001,4.38964,-13824.64800969234,2817.601380308746
56.4901,-4.72154,3.68286,-15943.852727682397,4145.470976340256
56.7378,-2.72008,5.18651,-19217.37383557554,12214.238057880168
56.9856,0.293039,4.76497,40504.92931014725,219543.8984174754
57.2333,2.58925,5.96281,19649.31732317829,15083.538453029545
57.4811,3.1939,5.81569,18374.514740098,11152.561257798136
57.7289,3.29355,6.63705,18239.53256046354,12251.896693164364
57.9766,1.95023,5.59018,21782.755688289773,20812.849748602617
58.2244,1.32295,6.06778,24861.565603360454,38009.62842629069
58.4722,0.490961,6.27013,34694.2013158812,147694.79524164292
58.7199,-2.1484400000000003,4.9673300000000005,-21271.04034185902,16393.334351095873
58.9677,-2.57481,5.75706,-20081.708852510288,14967.0089863286
59.2155,-0.815812,5.30358,-29539.275567986457,64011.44413713066
59.4632,2.1004400000000003,6.9229899999999995,21612.335172997733,23744.54662003543
59.711,3.90124,6.1759,17630.918711609993,9303.606931781023
59.9587,1.64093,4.87328,23596.326126961383,23359.0118782152
60.2065,-2.77082,3.9527900000000002,-19870.05575104488,9448.72818935704
60.4543,-4.199330000000001,4.90517,-17345.93571793414,6753.838644571493
60.702,1.3423100000000001,6.21725,25438.45091745737,39274.88491243645
60.9498,4.79275,6.73723,16688.841916370486,7819.907996854191
61.1976,1.07144,4.647480000000001,27572.315843337015,39865.909279578984
61.4453,-4.7937199999999995,4.11877,-16778.037513118266,4805.2396260141795
61.6931,-5.62639,5.284669999999999,-15948.532255858987,4993.3008056418075
61.9409,0.862677,6.0502,29877.335965287424,69846.0952435036
62.1886,8.42114,7.59387,14017.045844346483,4213.352076686384
62.4364,9.2786,6.082990000000001,13607.260158360665,2973.6136400244136
62.6841,7.725280000000001,5.71788,14502.397000108878,3577.994765700878
62.9319,9.47569,6.36576,13583.652122663945,3041.8314648858404
63.1797,10.978,6.4661,12967.320162322418,2545.9433472365095
63.4274,7.1654800000000005,5.618609999999999,14987.95727340288,3917.464871097923
63.6752,-1.44679,4.21662,-25614.427209636975,24884.12550333153
63.923,-5.34831,2.6876599999999997,-16608.822539583904,2782.1216997456204
64.1707,-1.4147399999999999,6.12673,-25940.11575894172,37445.77077907801
64.4185,3.28626,6.304069999999999,19637.191167367917,12556.750727313616
64.6663,4.29105,5.9011,18012.351762798928,8256.931240913627
64.914,7.0804100000000005,6.85578,15281.959630422381,4932.379326895472
65.1618,11.9532,7.71592,12866.890031638239,2768.5752735665164
65.4095,11.0564,6.989889999999999,13239.215204003487,2789.9606462644806
65.6573,2.56756,3.9673599999999998,21593.419176364012,11121.958036628137
65.9051,-4.1918,4.12665,-18384.511757792512,6032.927846875064
66.1528,-5.03595,4.78493,-17337.15986111573,5490.995600869851
66.4006,-3.4239800000000002,4.879980000000001,-19765.62412458525,9390.229293508948
66.6484,-0.6689350000000001,4.26026,-34148.485579425724,72494.05338167802
66.8961,0.69199,4.83959,33848.559912937664,78909.2104334845
67.1439,-1.3330600000000001,4.904730000000001,-27270.561453106264,33445.542672264106
67.3916,-4.75474,3.6687,-17892.369430187555,4601.848933167906
67.6394,-3.4602,4.81219,-19940.637259597228,9243.9895237752
67.8872,0.0838452,5.06019,69077.84793023506,1389652.3409071926
68.1349,0.339104,5.11339,43461.86721299661,218455.5747206944
68.3827,0.501058,3.90425,38250.8507550587,99350.36474337698
68.6305,2.1934,5.87151,23439.32487295182,20914.90214127793
68.8782,2.0886299999999998,5.28419,23882.161182315867,20140.45669712897
69.126,-0.589338,6.08108,-36498.84089082263,125537.67804275017
69.3738,-3.19025,2.4978599999999997,-20836.671891710477,5438.145144865122
69.6215,-3.91488,5.4307,-19508.731672302136,9020.80387228584
69.8693,-1.7249400000000001,4.03661,-25698.387095898695,20045.987087740483
70.117,0.201542,5.09668,52690.61881448125,444154.27601408446
70.3648,2.01385,5.21786,24520.7755199744,21177.67499622887
70.6126,2.5364,4.58177,22759.103801279023,13704.067901349448
70.8603,-1.9810599999999998,3.06067,-24770.934121291437,12756.751318472394
71.1081,-6.21661,3.56945,-16959.034031460014,3245.8476596314576
71.3559,-7.61533,1.4077600000000001,-15886.563115041803,978.9360866820576
71.6036,-8.53043,3.5964400000000003,-15332.24911362676,2154.7039751381726
71.8514,-8.41717,2.70116,-15436.223561107485,1651.223737829506
72.0992,-7.2991600000000005,2.8268299999999997,-16224.41098236063,2094.4779937836124
72.3469,-5.96954,5.16911,-17388.919562001975,5019.10768157719
72.5947,-5.41047,3.20898,-18009.343502582764,3560.4853433327794
72.8424,-4.7561800000000005,4.49592,-18842.694479142556,5937.208000012758
73.0902,-0.306021,5.88804,-47129.76704191615,302268.9661520695
73.338,5.82875,6.69227,17687.529132520536,6769.30509367243
73.5857,10.2144,7.3044199999999995,14703.845574650019,3504.9589687173834
73.8335,10.7024,5.159330000000001,14509.357476296122,2331.5240499811416
74.0813,6.34694,3.9708300000000003,17308.411104399038,3609.552397016059
74.329,4.95748,5.25948,18836.12104370394,6661.196260365133
