E,DOS,dDOS,Velocity,dVelocity
0.24821999999999997,0.00296208,0.00543597,4640.9819367631435,2839.024398986214
0.49644099999999997,0.0113941,0.0164081,4701.856576439332,2256.975113371542
0.744661,0.024667500000000002,0.0250937,4762.646183575607,1614.9809014152468
0.9928819999999999,0.0457383,0.0304008,4696.302292415474,1040.4987600812838
1.2411,0.07852689999999998,0.034947900000000004,4551.095944024399,675.1516720689857
1.48932,0.11931900000000001,0.039787,4470.331928456662,496.88649721645544
1.73754,0.161597,0.044161900000000004,4477.783256216517,407.9123215969506
1.9857599999999997,0.205646,0.046603399999999996,4516.777615632543,341.2087331778095
2.23398,0.251838,0.0543476,4566.639460435037,328.512201615224
2.4822,0.29528699999999997,0.0603616,4645.802002389064,316.5736193720996
2.73042,0.338544,0.0721029,4730.048084894523,335.814380562409
2.97864,0.38312399999999996,0.0754691,4810.052877202249,315.8484303001837
3.22686,0.431663,0.09276269999999999,4875.9146992832075,349.2854299753195
3.4750900000000002,0.529792,0.104468,4784.756755599212,314.5116712975773
3.7233099999999997,0.679726,0.124831,4610.617866951313,282.2603091036986
3.9715300000000004,0.7980510000000001,0.136968,4562.602577001514,261.0397317493692
4.21975,0.873604,0.146836,4609.677774855012,258.2825979479092
4.467969999999999,0.990764,0.16592300000000001,4591.991246254568,256.3564656162231
4.71619,1.13578,0.191931,4548.627942563757,256.23454042727656
4.96441,1.22682,0.181825,4587.42634013714,226.65039599737776
5.21263,1.31853,0.20966500000000002,4626.567322563561,245.2475781820585
5.46085,1.53426,0.254171,4537.237044373669,250.56821006180175
5.70907,1.7973400000000002,0.247792,4433.545031497756,203.76443283515923
5.95729,2.07102,0.30330300000000004,4350.66210997551,212.40428031770574
6.205509999999999,2.43182,0.362032,4237.6537620097915,210.30776748753703
6.45373,2.65852,0.360529,4222.582816262972,190.89741708085896
6.70195,2.65751,0.342614,4330.720060552918,186.13004245003305
6.95017,2.6428700000000003,0.40200199999999997,4445.179571152945,225.4003237560346
7.19839,2.65219,0.37663,4545.060435897916,215.16308918930977
7.446610000000001,2.67949,0.403541,4633.110423670696,232.60640734152258
7.6948300000000005,2.83455,0.400733,4647.5307380281,219.03395167430455
7.94305,3.0567599999999997,0.434759,4629.016287355506,219.47934642834062
8.19127,3.2656400000000003,0.5410699999999999,4621.990165682741,255.28284056265508
8.43949,3.4186300000000003,0.542378,4643.488710195127,245.58646063623064
8.687710000000001,3.64733,0.535203,4633.005501607899,226.63221750602978
8.93593,4.02796,0.5923970000000001,4567.1900183575835,223.91952731580204
9.18415,4.17871,0.625073,4594.760298575019,229.12123385330776
9.43237,4.217,0.6191770000000001,4662.980977018337,228.23916257682433
9.680589999999999,4.54023,0.6930069999999999,4629.0608721672215,235.54030696014405
9.92882,5.02958,0.769839,4549.937978054008,232.15928346629272
10.177,5.4501,0.775001,4503.28380544874,213.47392528327626
10.4253,5.71062,0.8302379999999999,4505.561394617296,218.36563540912314
10.6735,5.84622,0.748617,4541.128695931772,193.85417342641927
10.9217,6.11155,0.938534,4543.536251284491,232.59737411351813
11.1699,6.46488,0.985559,4526.511824598075,230.03741613787477
11.4181,6.64015,0.917901,4552.544748333418,209.7935683200852
11.6664,6.9927600000000005,0.978532,4539.339440026916,211.75714184898467
11.9146,7.631460000000001,1.0554700000000001,4471.30942973068,206.15455682885647
12.1628,8.04293,1.0854,4454.530181524408,200.40080404077472
12.411,8.3405,1.14866,4460.581169735283,204.7911383256407
12.6592,8.82117,1.19791,4436.2199315045,200.8318337056831
12.9075,9.83668,1.40159,4333.74013932226,205.8509533037601
13.1557,11.1979,1.4716200000000002,4203.535677158589,184.16123429445787
13.4039,12.0376,1.43206,4154.87958663524,164.78367513625528
13.6521,12.3859,1.53965,4166.21241979491,172.64960942350856
13.9003,12.3787,1.6168,4217.373467883925,183.6319613792828
14.1486,11.9128,1.41507,4322.370469298511,171.16724705353727
14.3968,11.6632,1.57289,4403.7470491847,197.9817131309886
14.645,11.6378,1.46214,4457.454438019149,186.69541875540796
14.8932,11.7633,1.6232600000000001,4491.588024923523,206.62314487056076
15.1414,12.726,1.6865299999999999,4423.822304531497,195.44449812492056
15.3897,14.1953,1.86453,4312.107071932906,188.8159892039898
15.6379,15.3053,1.84828,4250.329806909631,171.1123442629811
15.8861,15.7667,1.9677900000000002,4252.871085824422,176.94956917478146
16.1343,15.5332,2.04153,4318.478208287155,189.21255039518704
16.3825,15.5033,1.93334,4365.456777192633,181.486032506587
16.6308,16.2671,1.95305,4339.333277539012,173.68393773262076
16.879,17.4154,2.14016,4283.883147910671,175.50170598917197
17.1272,18.7595,2.39614,4219.89312208603,179.688150683162
17.3754,19.438,2.37767,4210.40274458612,171.69397840290893
17.6236,19.4766,2.18033,4247.59396344931,158.52352418167666
17.8719,20.2878,2.46862,4229.474952661055,171.56856756099546
18.1201,22.1654,2.6663200000000002,4144.442903504828,166.20193406091826
18.3683,23.7669,2.58806,4086.0726881931723,148.33823363624825
18.6165,24.4699,2.53383,4082.932969913727,140.95152536747958
18.8647,25.1697,3.04648,4080.6080395167014,164.6560600371027
19.113,25.899,2.7065900000000003,4077.330036266333,142.05818285748018
19.3612,26.3321,2.84227,4089.8807068911256,147.17595741959036
19.6094,26.7755,2.8942900000000003,4101.864397309856,147.81957621484605
19.8576,27.2698,3.0699,4111.25877170522,154.29719351038213
20.1059,28.0486,3.06435,4106.7308527158175,149.57816396602178
20.3541,29.2235,3.18692,4084.210819965438,148.4882549075339
20.6023,31.1238,3.5205699999999998,4031.7836974116713,152.04002692098797
20.8505,34.0308,3.2840599999999998,3944.9171638102525,126.92295870475536
21.0987,37.2204,3.6772699999999996,3859.1744525825434,127.11546302841944
21.347,39.7505,4.21114,3805.0583994250674,134.39013253625754
21.5952,41.5843,4.02721,3777.2811709248604,121.95987580146547
21.8434,44.2274,4.2748,3728.7847571606117,120.15858741609453
22.0916,48.6213,4.75255,3640.213732992985,118.62828369841694
22.3398,51.7832,4.750859999999999,3591.210405633989,109.84911842934243
22.5881,50.5901,4.29481,3645.9909000887374,103.2005693266769
22.8363,48.3549,4.43783,3728.3896050914705,114.08374639351413
23.0845,50.9079,4.50089,3691.5000556401537,108.81672815796249
23.3327,58.6436,5.21391,3546.669735281468,105.13373717854677
23.5809,66.7241,5.34537,3421.3457755981267,91.38892166264456
23.8292,71.064,5.584980000000001,3373.7071667044315,88.40680404418924
24.0774,72.1755,5.634580000000001,3379.564581582335,87.9712062993032
24.3256,73.3407,6.04005,3384.633502776401,92.93987186882185
24.5738,74.8026,5.853,3385.2722946226254,88.32078056570366
24.822,76.4223,5.94268,3383.779887068239,87.73510828333472
25.0703,81.1099,6.24145,3339.3813994722636,85.6819779208147
25.3185,88.49,6.653060000000001,3265.213185837507,81.85721046732328
25.5667,96.2691,6.53981,3195.4971772014032,72.38792891952224
25.8149,102.79,7.13922,3146.6441691438395,72.8768562085902
26.0631,107.382,7.529730000000001,3120.9813675985324,72.97567106109909
26.3114,109.8,7.488510000000001,3117.5456137092665,70.9012744271332
26.5596,110.537,7.10422,3130.1327321375056,67.08740335447742
26.8078,111.62700000000001,7.65694,3139.3180998160724,71.80712402029033
27.056,115.086,7.9774899999999995,3126.697406731569,72.27238173624835
27.3042,119.044,8.10877,3110.5326124422663,70.6530325290457
27.5525,119.405,8.15886,3126.2050591260654,71.23147660676963
27.8007,116.589,8.12514,3170.070496567194,73.66873075727165
28.0489,114.12899999999999,8.01104,3211.6596139992894,75.17286061634094
28.2971,112.919,8.34287,3242.076342037569,79.87204314394917
28.5453,113.141,8.03031,3258.872443506605,77.12849002582958
28.7936,115.304,8.26723,3257.117895847684,77.87196889717403
29.0418,117.40299999999999,8.758239999999999,3256.1688238029496,80.99624915173615
29.29,115.39200000000001,8.38069,3293.60848429135,79.76349687987795
29.5382,107.745,7.9058,3388.7635555304346,82.91155817576704
29.7864,98.5153,7.71453,3510.9804293553525,91.67300214395837
30.0347,95.1777,7.85243,3571.2596111437906,98.23919939323395
30.2829,98.3486,8.13768,3551.892987648951,97.99099139449186
30.5311,100.449,7.801710000000001,3546.2067635838644,91.83698576827898
30.7793,99.8809,7.969130000000001,3572.14683042182,95.02990754410365
31.0275,99.7448,8.4298,3592.95733440308,101.24373281750478
31.2758,98.1659,8.16474,3631.3632362644566,100.7033843986093
31.524,95.0614,7.8441399999999994,3689.8646489769462,101.51870096609898
31.7722,91.1868,7.78495,3761.015805345362,107.05720023455876
32.0204,87.1468,7.441739999999999,3838.1179076161798,109.27685350811963
32.2686,86.248,8.03588,3871.281004306026,120.25652185921228
32.5169,89.1065,8.218110000000001,3849.053257950883,118.3553474263896
32.7651,92.6091,7.87962,3819.214663936733,108.3461005844297
33.0133,93.1486,8.47815,3831.0528233074197,116.2563769477129
33.2615,90.0364,7.9953899999999996,3894.0913781500954,115.29390654072853
33.5098,86.7898,8.4611,3961.648621774124,128.76438670088461
33.758,84.857,8.222669999999999,4011.1866678036267,129.58679294054494
34.0062,85.3512,8.41822,4023.028888407976,132.2889453960708
34.2544,89.8514,8.80686,3973.9303608843825,129.86056218469867
34.5026,90.3064,8.17645,3986.385833152808,120.33735724641205
34.7509,82.7995,7.37308,4123.05465251947,122.41043989418418
34.9991,77.2048,8.098239999999999,4240.406017872656,148.28736999672202
35.2473,79.7307,8.88482,4214.955586755714,156.5879273373028
35.4955,85.612,9.108889999999999,4135.43890997761,146.69009594870624
35.7437,89.1344,8.4278,4099.229004377093,129.22244645133625
35.992,89.697,9.313189999999999,4109.562968790824,142.25516334482742
36.2402,88.7109,8.56546,4143.675020052425,133.38981693004084
36.4884,85.4655,8.36125,4214.6083771228205,137.46707383104734
36.7366,82.6917,8.864310000000001,4280.517642955332,152.97717624835215
36.9848,83.6195,8.37527,4283.81413399674,143.0471398694222
37.2331,87.1597,9.44961,4243.900379090466,153.39427019642142
37.4813,89.0366,8.887260000000001,4232.57373916133,140.85157320708052
37.7295,86.8367,9.09985,4286.839477356963,149.767872533177
37.9777,86.7473,8.88434,4307.097894020502,147.06449367071866
38.2259,92.0187,10.2781,4241.610058326106,157.9462816207322
38.4742,95.6584,9.48409,4205.229023686645,139.00202628271296
38.7224,92.9565,8.723419999999999,4263.823465279321,133.40572616264757
38.9706,88.8461,9.202060000000001,4347.065965095721,150.10499311167513
39.2188,86.8892,8.924439999999999,4398.033770114685,150.60076935388537
39.467,85.4277,9.051,4441.613839796797,156.8872342975333
39.7153,82.8991,8.22519,4505.118839318982,149.02570305390373
39.9635,81.8598,9.40128,4542.933816785131,173.9366978589361
40.2117,82.9372,9.81322,4541.8849048303955,179.15681590072774
40.4599,80.3429,8.53009,4609.123311645347,163.14474985940168
40.7081,75.0436,7.895760000000001,4734.421939311343,166.07229226213457
40.9564,72.7116,8.28588,4803.940008791229,182.5038177305964
41.2046,74.4262,9.57846,4786.001293279757,205.33783993163186
41.4528,80.1945,9.41209,4687.112143497052,183.39301762201794
41.701,84.7577,9.77597,4619.789816472943,177.640057921334
41.9492,82.9186,9.2137,4672.142642778529,173.07756635497256
42.1975,78.4685,9.181569999999999,4777.605905108662,186.3666656871522
42.4457,78.1109,9.590019999999999,4803.629958673688,196.61128912329505
42.6939,79.6195,9.79368,4791.68612454035,196.49235790531523
42.9421,78.4823,9.10512,4833.36104092764,186.93924909592604
43.1903,77.0658,9.39833,4881.514030835462,198.46104943569043
43.4386,76.1902,9.26719,4918.905364015682,199.4570732844988
43.6868,74.5566,8.948030000000001,4973.427024259556,198.9896792532386
43.935,74.1962,9.6655,5000.316464950302,217.15275565509856
44.1832,75.2937,9.43188,4994.624654321819,208.57942133266894
44.4314,77.408,9.917769999999999,4967.246069409405,212.16347554028889
44.6797,81.2828,9.97183,4905.21716013447,200.6159987268168
44.9279,82.8292,10.166,4892.534339657154,200.18502661381288
45.1761,77.9999,8.984580000000001,5009.858202690494,192.38327674999405
45.4243,69.6358,8.65681,5221.944652037684,216.41498431413524
45.6725,66.6887,9.5743,5317.041674642297,254.4730711081031
45.9208,74.3451,9.46453,5146.434765154352,218.41404089624825
46.169,89.7893,11.4661,4850.0149272019535,206.4720614643154
46.4172,107.2,11.7416,4588.1610756579375,167.53887523400851
46.6654,115.69200000000001,12.4544,4488.968012777457,161.10638309984782
46.9137,111.397,10.6774,4562.045204926299,145.78610491991924
47.1619,106.425,12.0498,4648.333373338399,175.45820214452266
47.4101,108.007,11.8616,4641.741010300459,169.94812209750305
47.6583,107.816,11.2255,4660.676054781601,161.77926103594555
47.9065,107.52600000000001,11.716,4681.044363166587,170.0410439188401
48.1548,112.307,12.316,4629.581551265079,169.25787178127868
48.403,118.505,12.7997,4563.032761277141,164.30962647940433
48.6512,127.46600000000001,13.4942,4468.706969362433,157.71889742525792
48.8994,135.39600000000002,13.821,4394.586669496864,149.55676075941525
49.1476,128.678,12.3363,4484.88248335497,143.34950038514927
49.3959,114.655,12.5276,4676.424144461589,170.3466266582061
49.6441,108.125,11.8275,4784.692289000693,174.48795947749431
49.8923,103.869,11.3344,4865.319050789024,176.99819808319666
50.1405,98.1622,11.9912,4974.261787059998,202.57160352790166
50.3887,92.7112,11.0684,5086.616476409728,202.44902151120206
50.637,84.438,10.7466,5264.821173874858,223.37994289254047
50.8852,74.7801,10.4484,5500.260623505722,256.19233858641616
51.1334,68.7746,9.87474,5674.288088578581,271.5976183422937
51.3816,62.8804,10.3218,5865.219581868509,320.94633332302504
51.6298,52.5681,8.054680000000001,6246.122443936773,319.04270834165794
51.8781,43.5968,8.2093,6669.431177633598,418.6405431198275
52.1263,38.9178,8.29233,6948.741097810875,493.5492921018277
52.3745,34.0124,8.12266,7290.966887085762,580.4150824067608
52.6227,29.7342,6.9308,7649.169605620876,594.3395794840698
52.8709,26.4907,5.98681,7974.392647808729,600.7500777432382
53.1192,24.2357,7.01433,8240.1184190709,794.9727366371133
53.3674,24.1037,6.91258,8280.827745280469,791.6232435186909
53.6156,23.1658,6.89697,8417.102927879892,835.3362160334725
53.8638,18.9797,5.5771,9023.032117942175,883.8111290772383
54.112,13.8625,5.8502,10050.002336734553,1413.7691103358404
54.3603,10.8055,5.45679,10953.60895469183,1843.874854409312
54.6085,8.74981,5.91906,11787.58713016376,2658.027706363899
54.8567,7.01107,4.8929,12729.440330491172,2961.2270648126373
55.1049,5.0869,4.41073,14208.88625019897,4106.739019570125
55.3531,5.6656699999999995,6.29847,13748.706222603694,5094.774955403715
55.6014,9.31024,5.469930000000001,11685.693315850825,2288.5289229231303
55.8496,10.191,4.41748,11372.573072171896,1643.23420666601
56.0978,7.273810000000001,5.04741,12763.237796655885,2952.2142647974097
56.346,5.65076,5.3368400000000005,13924.856608359247,4383.7692018600055
56.5942,5.043069999999999,4.72427,14505.540296496027,4529.531323525447
56.8425,4.1306,4.3849,15548.745623228642,5502.00975630473
57.0907,6.4314800000000005,6.10977,13454.19019215568,4260.407295630563
57.3389,7.7045,5.20841,12704.835416881973,2862.926629436584
57.5871,3.9853,3.3603300000000003,15872.57634140375,4461.163996764934
57.8353,2.45776,4.61644,18701.070309547507,11708.820692504443
58.0836,4.11186,4.4664,15798.185271173606,5720.13016364748
58.3318,4.94386,5.97915,14899.298550471014,6006.457267389392
58.58,5.1597800000000005,5.8375900000000005,14730.137759247144,5555.057697474724
58.8282,3.9087199999999998,5.08646,16204.282714442788,7028.944189815399
59.0764,1.18429,4.72876,24193.99682846034,32201.46458145094
59.3247,-0.556502,3.3685300000000002,-31207.028373806686,62965.82132421691
59.5729,-0.6057560000000001,4.05666,-30421.75130358076,67910.02022701004
59.8211,-0.93579,4.1802,-26389.292990235914,39293.90589487101
60.0693,-1.7773299999999999,5.16821,-21367.97246476298,20711.627868421434
60.3176,-0.493004,5.111680000000001,-32854.65008345433,113550.43811281999
60.5658,-0.17589100000000002,4.42746,-46450.250229242294,389742.55925374886
60.814,-3.09712,3.9343,-17903.33731011883,7580.933168857256
61.0622,-4.28869,4.3882,-16106.12399924831,5493.287061746744
61.3104,-2.23029,5.14366,-20082.600353731752,15438.66543309767
61.5587,-0.28484899999999996,4.82154,-39985.7904166272,225608.52609249036
61.8069,1.92439,6.555510000000001,21208.562615833674,24082.603848540846
62.0551,3.64371,6.09809,17189.160901291667,9589.229853493207
62.3033,0.572358,3.90875,31942.512466968,72713.98930068132
62.5515,-4.15369,4.1071,-16542.38346763894,5452.288549326709
62.7998,-4.27475,5.722980000000001,-16428.05791632574,7331.231230244913
63.048,-0.9274680000000001,5.2469,-27411.461411276312,51690.98557785211
63.2962,0.8235020000000001,5.2397,28594.41160106346,60645.934550869315
63.5444,-1.56603,3.71602,-23140.307276911153,18303.155615790733
63.7926,-5.00139,4.19295,-15754.365617692405,4402.60526972868
64.0409,-4.7283599999999995,4.16691,-16093.570174030267,4727.545789388898
64.2891,-1.47837,4.85154,-23772.86233911582,26004.994688166884
64.5373,1.34215,5.51201,24614.506600066357,33696.04021548495
64.7855,2.39505,5.20999,20345.32540211373,14752.50795748656
65.0337,2.63161,5.16266,19766.78740349533,12926.085904995927
65.282,2.2410900000000002,5.51809,20907.08540629032,17159.39021482661
65.5302,-0.433121,4.69308,-36252.85442345403,130939.197643696
65.7784,-3.2955099999999997,4.88649,-18478.45333572443,9133.118696305683
66.0266,-3.5655,4.33805,-18044.995066441505,7318.2991476435445
66.2748,-3.04224,4.02539,-19072.988707537283,8412.255181544797
66.5231,-3.0773900000000003,4.7154300000000005,-19047.519724244037,9728.732829746812
66.7713,-2.32435,3.91729,-20967.35611876103,11778.95855307418
67.0195,1.8286099999999998,6.75103,22769.039857242937,28020.279814973546
67.2677,5.6473,4.55831,15673.827322177849,4217.13992328199
67.5159,3.57654,4.400469999999999,18296.469828398174,7503.822420809056
67.7642,0.73301,6.4862400000000004,31108.65269629677,91757.81692030624
68.0124,-0.585047,4.78294,-33618.58575327455,91614.1112933891
68.2606,-2.5613,3.7388199999999996,-20600.48963711615,10023.762447978872
68.5088,-2.52866,5.373880000000001,-20738.8682495559,14691.342990431556
68.757,0.14127699999999999,5.81671,54379.90150974917,746316.614993863
69.0053,0.464363,4.5776900000000005,36662.329359592535,120472.40457771113
69.2535,-1.8520299999999998,4.82152,-23173.738617166175,20109.946768431866
69.5017,-2.93457,5.77093,-19925.06525308059,13061.108417895915
69.7499,-2.4716,4.72641,-21148.875918848793,13480.91765745068
69.9981,-1.06625,4.38227,-28055.764775762997,38436.2483829726
70.2464,-3.76833,4.57227,-18462.224633378384,7467.001731108087
70.4946,-4.05034,4.04241,-18065.820823365622,6010.161108327563
70.7428,-1.49714,5.3775900000000005,-25231.998530755543,30210.34819015668
70.991,4.26631,7.717960000000001,17838.938900682828,10757.172141637699
71.2392,7.4545,5.63258,14845.36254002483,3739.0371800083926
71.4875,3.41837,4.44493,19295.883811846154,8363.532415141426
71.7357,-2.25988,3.465,-22201.350470098143,11346.876644394932
71.9839,-4.3235,5.34144,-17925.146718022774,7381.844149911056
72.2321,-2.95703,4.19362,-20391.658176516205,9639.733419094211
72.4803,-1.24193,4.78745,-27291.782864038527,35068.5523961419
72.7286,-0.6423939999999999,5.62145,-34076.41915469522,99398.44342553437
72.9768,-0.327165,5.44726,-42767.962123642414,237360.56819749178
73.225,-1.15866,3.9325099999999997,-28121.50378451862,31814.944928612585
73.4732,-2.8408900000000004,4.14979,-20901.885096212383,10177.386609868438
73.7215,-2.55388,5.544569999999999,-21706.021970422484,15708.20406370041
73.9697,0.441683,6.1849099999999995,39046.607066917066,182257.2242609341
74.2179,2.34307,5.39737,22438.559794402645,17229.425625988362
74.4661,1.93965,5.5092099999999995,23950.554599263156,22675.682827869692
74.7143,1.2762799999999999,4.34406,27597.609078437366,31311.22963518217
74.9626,2.3141,7.569039999999999,22682.278499253975,24730.00336774955
75.2108,2.71773,6.397959999999999,21546.1160410356,16907.64396929532
75.459,-1.55084,4.294580000000001,-26033.70569012923,24030.81733045954
