# == pyFAI calibration ==
# SplineFile: None
# PixelSize: 7.900e-05, 7.900e-05 m
# PONI: 1.411e-01, 1.028e-01 m
# Distance Sample to Detector: 0.252389920345 m
# Rotations: 0.001947 0.002954 0.000003 rad
# 
# == Fit2d calibration ==
# Distance Sample-beamCenter: 252.392 mm
# Center: x=1295.273, y=1795.185 pix
# Tilt: 0.203 deg  TiltPlanRot: 123.397 deg
# 
# Wavelength: 8.603e-11
# Polarization factor: 0.99
# Normalization factor: None
#
# 2th_deg	 I
3.335335913E+00  4.740082520E+03
3.345515043E+00  4.760185547E+03
3.355694174E+00  4.764280273E+03
3.365873304E+00  4.781344727E+03
3.376052435E+00  4.773500000E+03
3.386231566E+00  4.758749512E+03
3.396410696E+00  4.716919922E+03
3.406589827E+00  4.726921875E+03
3.416768958E+00  4.738481445E+03
3.426948088E+00  4.759025391E+03
3.437127219E+00  4.786779297E+03
3.447306349E+00  4.828068359E+03
3.457485480E+00  4.857062988E+03
3.467664611E+00  4.859857910E+03
3.477843741E+00  4.846718750E+03
3.488022872E+00  4.849100098E+03
3.498202002E+00  4.861717285E+03
3.508381133E+00  4.885277344E+03
3.518560264E+00  4.905213867E+03
3.528739394E+00  4.921408203E+03
3.538918525E+00  4.929142578E+03
3.549097656E+00  4.935697266E+03
3.559276786E+00  4.974677246E+03
3.569455917E+00  4.998413574E+03
3.579635047E+00  4.996141113E+03
3.589814178E+00  4.988265625E+03
3.599993309E+00  4.987750000E+03
3.610172439E+00  4.973433594E+03
3.620351570E+00  4.980768066E+03
3.630530701E+00  5.000574219E+03
3.640709831E+00  5.017867188E+03
3.650888962E+00  5.028089355E+03
3.661068092E+00  5.029263672E+03
3.671247223E+00  5.046812012E+03
3.681426354E+00  5.056153809E+03
3.691605484E+00  5.057481934E+03
3.701784615E+00  5.056805176E+03
3.711963745E+00  5.069462402E+03
3.722142876E+00  5.079060547E+03
3.732322007E+00  5.081047852E+03
3.742501137E+00  5.080890625E+03
3.752680268E+00  5.090497070E+03
3.762859399E+00  5.104221680E+03
3.773038529E+00  5.115633789E+03
3.783217660E+00  5.132593750E+03
3.793396790E+00  5.136533691E+03
3.803575921E+00  5.131002441E+03
3.813755052E+00  5.136567383E+03
3.823934182E+00  5.148159180E+03
3.834113313E+00  5.150856445E+03
3.844292444E+00  5.150155273E+03
3.854471574E+00  5.138681641E+03
3.864650705E+00  5.125191406E+03
3.874829835E+00  5.118505859E+03
3.885008966E+00  5.105989258E+03
3.895188097E+00  5.105950195E+03
3.905367227E+00  5.119186523E+03
3.915546358E+00  5.134703125E+03
3.925725488E+00  5.152072754E+03
3.935904619E+00  5.162892090E+03
3.946083750E+00  5.156300293E+03
3.956262880E+00  5.132235840E+03
3.966442011E+00  5.125824219E+03
3.976621142E+00  5.128343750E+03
3.986800272E+00  5.125277832E+03
3.996979403E+00  5.126977539E+03
4.007158533E+00  5.129729980E+03
4.017337664E+00  5.137830078E+03
4.027516795E+00  5.149381348E+03
4.037695925E+00  5.159257324E+03
4.047875056E+00  5.163671875E+03
4.058054187E+00  5.162237305E+03
4.068233317E+00  5.158466309E+03
4.078412448E+00  5.155818848E+03
4.088591578E+00  5.155842285E+03
4.098770709E+00  5.148282227E+03
4.108949840E+00  5.144870605E+03
4.119128970E+00  5.139603027E+03
4.129308101E+00  5.138027344E+03
4.139487231E+00  5.137253418E+03
4.149666362E+00  5.139784180E+03
4.159845493E+00  5.138549805E+03
4.170024623E+00  5.139126953E+03
4.180203754E+00  5.142988770E+03
4.190382885E+00  5.149196289E+03
4.200562015E+00  5.159229492E+03
4.210741146E+00  5.160217773E+03
4.220920276E+00  5.154548828E+03
4.231099407E+00  5.166179199E+03
4.241278538E+00  5.182412109E+03
4.251457668E+00  5.180571289E+03
4.261636799E+00  5.180243652E+03
4.271815930E+00  5.174106445E+03
4.281995060E+00  5.165976562E+03
4.292174191E+00  5.169688965E+03
4.302353321E+00  5.168893066E+03
4.312532452E+00  5.168626465E+03
4.322711583E+00  5.169756836E+03
4.332890713E+00  5.173975098E+03
4.343069844E+00  5.167745605E+03
4.353248974E+00  5.166140625E+03
4.363428105E+00  5.155736816E+03
4.373607236E+00  5.150839355E+03
4.383786366E+00  5.143526855E+03
4.393965497E+00  5.136078125E+03
4.404144628E+00  5.137688477E+03
4.414323758E+00  5.145603027E+03
4.424502889E+00  5.139813965E+03
4.434682019E+00  5.134103027E+03
4.444861150E+00  5.130037109E+03
4.455040281E+00  5.137928223E+03
4.465219411E+00  5.142509277E+03
4.475398542E+00  5.142147949E+03
4.485577673E+00  5.141607422E+03
4.495756803E+00  5.142455566E+03
4.505935934E+00  5.136125488E+03
4.516115064E+00  5.132058105E+03
4.526294195E+00  5.126540527E+03
4.536473326E+00  5.127704590E+03
4.546652456E+00  5.128891602E+03
4.556831587E+00  5.129466309E+03
4.567010717E+00  5.127935547E+03
4.577189848E+00  5.123668945E+03
4.587368979E+00  5.121905762E+03
4.597548109E+00  5.123337402E+03
4.607727240E+00  5.124877441E+03
4.617906371E+00  5.132419922E+03
4.628085501E+00  5.135846191E+03
4.638264632E+00  5.129836914E+03
4.648443762E+00  5.123443848E+03
4.658622893E+00  5.122182129E+03
4.668802024E+00  5.122329102E+03
4.678981154E+00  5.115086426E+03
4.689160285E+00  5.103258789E+03
4.699339415E+00  5.097773438E+03
4.709518546E+00  5.101214355E+03
4.719697677E+00  5.105588379E+03
4.729876807E+00  5.114260742E+03
4.740055938E+00  5.122233887E+03
4.750235069E+00  5.121068848E+03
4.760414199E+00  5.115513184E+03
4.770593330E+00  5.106546875E+03
4.780772460E+00  5.103227051E+03
4.790951591E+00  5.096459961E+03
4.801130722E+00  5.087792480E+03
4.811309852E+00  5.083508789E+03
4.821488983E+00  5.087874023E+03
4.831668114E+00  5.094747070E+03
4.841847244E+00  5.096750977E+03
4.852026375E+00  5.102888184E+03
4.862205505E+00  5.107899902E+03
4.872384636E+00  5.113318848E+03
4.882563767E+00  5.113690918E+03
4.892742897E+00  5.113906250E+03
4.902922028E+00  5.118260742E+03
4.913101158E+00  5.116233887E+03
4.923280289E+00  5.111466309E+03
4.933459420E+00  5.103714844E+03
4.943638550E+00  5.100422363E+03
4.953817681E+00  5.097177734E+03
4.963996812E+00  5.101240234E+03
4.974175942E+00  5.109186523E+03
4.984355073E+00  5.113559082E+03
4.994534203E+00  5.110745605E+03
5.004713334E+00  5.105194824E+03
5.014892465E+00  5.102694336E+03
5.025071595E+00  5.099889648E+03
5.035250726E+00  5.094246094E+03
5.045429857E+00  5.091502441E+03
5.055608987E+00  5.094401855E+03
5.065788118E+00  5.097976074E+03
5.075967248E+00  5.099064941E+03
5.086146379E+00  5.093135254E+03
5.096325510E+00  5.086636719E+03
5.106504640E+00  5.093587891E+03
5.116683771E+00  5.102104492E+03
5.126862901E+00  5.107902344E+03
5.137042032E+00  5.107673340E+03
5.147221163E+00  5.101980957E+03
5.157400293E+00  5.090524414E+03
5.167579424E+00  5.083378906E+03
5.177758555E+00  5.083479492E+03
5.187937685E+00  5.086846191E+03
5.198116816E+00  5.085228516E+03
5.208295946E+00  5.082862305E+03
5.218475077E+00  5.083045898E+03
5.228654208E+00  5.082171875E+03
5.238833338E+00  5.075000000E+03
5.249012469E+00  5.067955566E+03
5.259191600E+00  5.058080078E+03
5.269370730E+00  5.052181152E+03
5.279549861E+00  5.056126465E+03
5.289728991E+00  5.060558105E+03
5.299908122E+00  5.056692383E+03
5.310087253E+00  5.046667969E+03
5.320266383E+00  5.042871582E+03
5.330445514E+00  5.045210449E+03
5.340624644E+00  5.045907227E+03
5.350803775E+00  5.038489746E+03
5.360982906E+00  5.030952637E+03
5.371162036E+00  5.025098633E+03
5.381341167E+00  5.018727051E+03
5.391520298E+00  5.016310547E+03
5.401699428E+00  5.017103027E+03
5.411878559E+00  5.015292969E+03
5.422057689E+00  5.014409180E+03
5.432236820E+00  5.003488770E+03
5.442415951E+00  4.993854980E+03
5.452595081E+00  4.982986328E+03
5.462774212E+00  4.976060547E+03
5.472953343E+00  4.968702637E+03
5.483132473E+00  4.963823242E+03
5.493311604E+00  4.960368164E+03
5.503490734E+00  4.961390625E+03
5.513669865E+00  4.964288086E+03
5.523848996E+00  4.969035156E+03
5.534028126E+00  4.971014160E+03
5.544207257E+00  4.968074219E+03
5.554386387E+00  4.967084473E+03
5.564565518E+00  4.959477051E+03
5.574744649E+00  4.951550781E+03
5.584923779E+00  4.944601562E+03
5.595102910E+00  4.942384277E+03
5.605282041E+00  4.948134766E+03
5.615461171E+00  4.952991699E+03
5.625640302E+00  4.943221680E+03
5.635819432E+00  4.928045898E+03
5.645998563E+00  4.920898438E+03
5.656177694E+00  4.921418457E+03
5.666356824E+00  4.923197754E+03
5.676535955E+00  4.920301270E+03
5.686715086E+00  4.912223633E+03
5.696894216E+00  4.906648926E+03
5.707073347E+00  4.901521484E+03
5.717252477E+00  4.894750977E+03
5.727431608E+00  4.888351074E+03
5.737610739E+00  4.880000488E+03
5.747789869E+00  4.878859863E+03
5.757969000E+00  4.879339844E+03
5.768148130E+00  4.879801758E+03
5.778327261E+00  4.880243164E+03
5.788506392E+00  4.880201660E+03
5.798685522E+00  4.878925293E+03
5.808864653E+00  4.882509766E+03
5.819043784E+00  4.882564453E+03
5.829222914E+00  4.881322754E+03
5.839402045E+00  4.885461426E+03
5.849581175E+00  4.887886230E+03
5.859760306E+00  4.884949707E+03
5.869939437E+00  4.880702148E+03
5.880118567E+00  4.870108887E+03
5.890297698E+00  4.857946777E+03
5.900476829E+00  4.846266113E+03
5.910655959E+00  4.836649414E+03
5.920835090E+00  4.831608887E+03
5.931014220E+00  4.831928711E+03
5.941193351E+00  4.826531738E+03
5.951372482E+00  4.818132812E+03
5.961551612E+00  4.817979980E+03
5.971730743E+00  4.817724609E+03
5.981909873E+00  4.816636230E+03
5.992089004E+00  4.810946777E+03
6.002268135E+00  4.807436523E+03
6.012447265E+00  4.806743652E+03
6.022626396E+00  4.804478516E+03
6.032805527E+00  4.804271973E+03
6.042984657E+00  4.802031738E+03
6.053163788E+00  4.799923340E+03
6.063342918E+00  4.801065430E+03
6.073522049E+00  4.794976074E+03
6.083701180E+00  4.785213867E+03
6.093880310E+00  4.778635254E+03
6.104059441E+00  4.777099609E+03
6.114238572E+00  4.773424805E+03
6.124417702E+00  4.771753418E+03
6.134596833E+00  4.766104004E+03
6.144775963E+00  4.759881836E+03
6.154955094E+00  4.755086426E+03
6.165134225E+00  4.754079102E+03
6.175313355E+00  4.752422852E+03
6.185492486E+00  4.748195801E+03
6.195671616E+00  4.739172852E+03
6.205850747E+00  4.731129395E+03
6.216029878E+00  4.723289551E+03
6.226209008E+00  4.717077148E+03
6.236388139E+00  4.714139160E+03
6.246567270E+00  4.720812500E+03
6.256746400E+00  4.726972168E+03
6.266925531E+00  4.726956543E+03
6.277104661E+00  4.717633789E+03
6.287283792E+00  4.707836914E+03
6.297462923E+00  4.701454102E+03
6.307642053E+00  4.697485352E+03
6.317821184E+00  4.699943359E+03
6.328000315E+00  4.701382324E+03
6.338179445E+00  4.700403809E+03
6.348358576E+00  4.696838867E+03
6.358537706E+00  4.693110840E+03
6.368716837E+00  4.688600586E+03
6.378895968E+00  4.682529297E+03
6.389075098E+00  4.678096191E+03
6.399254229E+00  4.677023926E+03
6.409433359E+00  4.674937988E+03
6.419612490E+00  4.671114746E+03
6.429791621E+00  4.661685547E+03
6.439970751E+00  4.657458008E+03
6.450149882E+00  4.658818359E+03
6.460329013E+00  4.656842285E+03
6.470508143E+00  4.655856445E+03
6.480687274E+00  4.650596191E+03
6.490866404E+00  4.644991211E+03
6.501045535E+00  4.638666992E+03
6.511224666E+00  4.630312988E+03
6.521403796E+00  4.629568359E+03
6.531582927E+00  4.631285645E+03
6.541762058E+00  4.635456055E+03
6.551941188E+00  4.638200195E+03
6.562120319E+00  4.638767090E+03
6.572299449E+00  4.635251953E+03
6.582478580E+00  4.631319824E+03
6.592657711E+00  4.624686035E+03
6.602836841E+00  4.612928711E+03
6.613015972E+00  4.600200195E+03
6.623195102E+00  4.592779785E+03
6.633374233E+00  4.589589844E+03
6.643553364E+00  4.585807617E+03
6.653732494E+00  4.584634766E+03
6.663911625E+00  4.587537598E+03
6.674090756E+00  4.585896973E+03
6.684269886E+00  4.580483887E+03
6.694449017E+00  4.575135742E+03
6.704628147E+00  4.568317383E+03
6.714807278E+00  4.561494141E+03
6.724986409E+00  4.560769531E+03
6.735165539E+00  4.558485840E+03
6.745344670E+00  4.548181641E+03
6.755523800E+00  4.541628418E+03
6.765702931E+00  4.542627930E+03
6.775882062E+00  4.546964355E+03
6.786061192E+00  4.543844238E+03
6.796240323E+00  4.536184082E+03
6.806419454E+00  4.530964844E+03
6.816598584E+00  4.530747070E+03
6.826777715E+00  4.525708008E+03
6.836956845E+00  4.522522949E+03
6.847135976E+00  4.520208008E+03
6.857315107E+00  4.516222656E+03
6.867494237E+00  4.515854492E+03
6.877673368E+00  4.518010254E+03
6.887852499E+00  4.511651367E+03
6.898031629E+00  4.506639160E+03
6.908210760E+00  4.501742676E+03
6.918389890E+00  4.493391113E+03
6.928569021E+00  4.485642090E+03
6.938748152E+00  4.481283203E+03
6.948927282E+00  4.477889648E+03
6.959106413E+00  4.476309570E+03
6.969285543E+00  4.471392090E+03
6.979464674E+00  4.467541504E+03
6.989643805E+00  4.464466797E+03
6.999822935E+00  4.463435059E+03
7.010002066E+00  4.462370605E+03
7.020181197E+00  4.457532715E+03
7.030360327E+00  4.446666504E+03
7.040539458E+00  4.435742188E+03
7.050718588E+00  4.432985352E+03
7.060897719E+00  4.433867676E+03
7.071076850E+00  4.435771973E+03
7.081255980E+00  4.434191406E+03
7.091435111E+00  4.428474121E+03
7.101614242E+00  4.419895020E+03
7.111793372E+00  4.412470703E+03
7.121972503E+00  4.409540527E+03
7.132151633E+00  4.405291504E+03
7.142330764E+00  4.399509766E+03
7.152509895E+00  4.392257812E+03
7.162689025E+00  4.388852539E+03
7.172868156E+00  4.385188477E+03
7.183047286E+00  4.381586914E+03
7.193226417E+00  4.378401855E+03
7.203405548E+00  4.374916504E+03
7.213584678E+00  4.370311523E+03
7.223763809E+00  4.362021973E+03
7.233942940E+00  4.353568848E+03
7.244122070E+00  4.350248047E+03
7.254301201E+00  4.347867676E+03
7.264480331E+00  4.343031250E+03
7.274659462E+00  4.336368164E+03
7.284838593E+00  4.330325684E+03
7.295017723E+00  4.325714355E+03
7.305196854E+00  4.320707031E+03
7.315375985E+00  4.317153320E+03
7.325555115E+00  4.313446289E+03
7.335734246E+00  4.307243652E+03
7.345913376E+00  4.305299805E+03
7.356092507E+00  4.303654785E+03
7.366271638E+00  4.295469238E+03
7.376450768E+00  4.284953125E+03
7.386629899E+00  4.274806152E+03
7.396809029E+00  4.267916016E+03
7.406988160E+00  4.261943848E+03
7.417167291E+00  4.258155273E+03
7.427346421E+00  4.253877441E+03
7.437525552E+00  4.249734375E+03
7.447704683E+00  4.243271484E+03
7.457883813E+00  4.237891602E+03
7.468062944E+00  4.230502930E+03
7.478242074E+00  4.225964355E+03
7.488421205E+00  4.220894531E+03
7.498600336E+00  4.216346191E+03
7.508779466E+00  4.212210938E+03
7.518958597E+00  4.208976562E+03
7.529137728E+00  4.203295898E+03
7.539316858E+00  4.195166016E+03
7.549495989E+00  4.190887695E+03
7.559675119E+00  4.190240723E+03
7.569854250E+00  4.187465820E+03
7.580033381E+00  4.181244629E+03
7.590212511E+00  4.173264160E+03
7.600391642E+00  4.163825684E+03
7.610570772E+00  4.154581543E+03
7.620749903E+00  4.150795898E+03
7.630929034E+00  4.148602539E+03
7.641108164E+00  4.143919922E+03
7.651287295E+00  4.138624023E+03
7.661466426E+00  4.134077637E+03
7.671645556E+00  4.131233398E+03
7.681824687E+00  4.129895508E+03
7.692003817E+00  4.126850586E+03
7.702182948E+00  4.120734375E+03
7.712362079E+00  4.111348633E+03
7.722541209E+00  4.104348145E+03
7.732720340E+00  4.099935059E+03
7.742899471E+00  4.095472412E+03
7.753078601E+00  4.092688477E+03
7.763257732E+00  4.090979980E+03
7.773436862E+00  4.086500000E+03
7.783615993E+00  4.078949951E+03
7.793795124E+00  4.071449463E+03
7.803974254E+00  4.062179443E+03
7.814153385E+00  4.053653076E+03
7.824332515E+00  4.047484375E+03
7.834511646E+00  4.042856934E+03
7.844690777E+00  4.038426270E+03
7.854869907E+00  4.033021240E+03
7.865049038E+00  4.026640869E+03
7.875228169E+00  4.024025879E+03
7.885407299E+00  4.024080811E+03
7.895586430E+00  4.022990723E+03
7.905765560E+00  4.015138428E+03
7.915944691E+00  4.006338867E+03
7.926123822E+00  4.000842529E+03
7.936302952E+00  3.996344727E+03
7.946482083E+00  3.994101074E+03
7.956661214E+00  3.988951904E+03
7.966840344E+00  3.983462158E+03
7.977019475E+00  3.979761230E+03
7.987198605E+00  3.975911865E+03
7.997377736E+00  3.968937500E+03
8.007556867E+00  3.958566650E+03
8.017735997E+00  3.951576172E+03
8.027915128E+00  3.946061279E+03
8.038094258E+00  3.940876709E+03
8.048273389E+00  3.938810059E+03
8.058452520E+00  3.937969482E+03
8.068631650E+00  3.937052490E+03
8.078810781E+00  3.936923584E+03
8.088989912E+00  3.932556885E+03
8.099169042E+00  3.926022705E+03
8.109348173E+00  3.921937988E+03
8.119527303E+00  3.917696289E+03
8.129706434E+00  3.911829102E+03
8.139885565E+00  3.906457031E+03
8.150064695E+00  3.899532715E+03
8.160243826E+00  3.891782959E+03
8.170422957E+00  3.884255127E+03
8.180602087E+00  3.874636230E+03
8.190781218E+00  3.865982178E+03
8.200960348E+00  3.861498779E+03
8.211139479E+00  3.860325928E+03
8.221318610E+00  3.858945557E+03
8.231497740E+00  3.854473877E+03
8.241676871E+00  3.847439453E+03
8.251856001E+00  3.840858643E+03
8.262035132E+00  3.832092285E+03
8.272214263E+00  3.825633301E+03
8.282393393E+00  3.819285156E+03
8.292572524E+00  3.815487549E+03
8.302751655E+00  3.813018555E+03
8.312930785E+00  3.812761475E+03
8.323109916E+00  3.809221680E+03
8.333289046E+00  3.804867432E+03
8.343468177E+00  3.800957520E+03
8.353647308E+00  3.797885986E+03
8.363826438E+00  3.795366211E+03
8.374005569E+00  3.788520508E+03
8.384184700E+00  3.782562500E+03
8.394363830E+00  3.777413818E+03
8.404542961E+00  3.769732910E+03
8.414722091E+00  3.762728027E+03
8.424901222E+00  3.757073975E+03
8.435080353E+00  3.752617676E+03
8.445259483E+00  3.747894043E+03
8.455438614E+00  3.746314697E+03
8.465617744E+00  3.744643066E+03
8.475796875E+00  3.743919678E+03
8.485976006E+00  3.739424805E+03
8.496155136E+00  3.729984131E+03
8.506334267E+00  3.721250000E+03
8.516513398E+00  3.714487061E+03
8.526692528E+00  3.709246582E+03
8.536871659E+00  3.705267090E+03
8.547050789E+00  3.704497314E+03
8.557229920E+00  3.702964111E+03
8.567409051E+00  3.697034668E+03
8.577588181E+00  3.685997559E+03
8.587767312E+00  3.677786865E+03
8.597946443E+00  3.674095703E+03
8.608125573E+00  3.673258057E+03
8.618304704E+00  3.671485596E+03
8.628483834E+00  3.665742920E+03
8.638662965E+00  3.658387939E+03
8.648842096E+00  3.652065918E+03
8.659021226E+00  3.646777100E+03
8.669200357E+00  3.640920654E+03
8.679379487E+00  3.639026855E+03
8.689558618E+00  3.641736328E+03
8.699737749E+00  3.643246094E+03
8.709916879E+00  3.636794434E+03
8.720096010E+00  3.626864746E+03
8.730275141E+00  3.617175537E+03
8.740454271E+00  3.611347412E+03
8.750633402E+00  3.604696045E+03
8.760812532E+00  3.598592529E+03
8.770991663E+00  3.595585449E+03
8.781170794E+00  3.592699463E+03
8.791349924E+00  3.587156494E+03
8.801529055E+00  3.583035889E+03
8.811708185E+00  3.579493896E+03
8.821887316E+00  3.575998535E+03
8.832066447E+00  3.570658936E+03
8.842245577E+00  3.563032959E+03
8.852424708E+00  3.557447510E+03
8.862603839E+00  3.551598633E+03
8.872782969E+00  3.548623535E+03
8.882962100E+00  3.550476318E+03
8.893141230E+00  3.551034668E+03
8.903320361E+00  3.543965820E+03
8.913499492E+00  3.533152100E+03
8.923678622E+00  3.524635254E+03
8.933857753E+00  3.518663086E+03
8.944036884E+00  3.512903564E+03
8.954216014E+00  3.509444336E+03
8.964395145E+00  3.506237549E+03
8.974574275E+00  3.500294922E+03
8.984753406E+00  3.491996338E+03
8.994932537E+00  3.486215820E+03
9.005111667E+00  3.481173584E+03
9.015290798E+00  3.478098633E+03
9.025469928E+00  3.475662354E+03
9.035649059E+00  3.469503662E+03
9.045828190E+00  3.465379639E+03
9.056007320E+00  3.462870361E+03
9.066186451E+00  3.463929688E+03
9.076365582E+00  3.460740967E+03
9.086544712E+00  3.453718262E+03
9.096723843E+00  3.446670654E+03
9.106902973E+00  3.439010010E+03
9.117082104E+00  3.433289795E+03
9.127261235E+00  3.430420654E+03
9.137440365E+00  3.424747559E+03
9.147619496E+00  3.416970947E+03
9.157798627E+00  3.410866943E+03
9.167977757E+00  3.409141113E+03
9.178156888E+00  3.404489258E+03
9.188336018E+00  3.397976074E+03
9.198515149E+00  3.395710693E+03
9.208694280E+00  3.392684570E+03
9.218873410E+00  3.386906494E+03
9.229052541E+00  3.380688721E+03
9.239231671E+00  3.373448975E+03
9.249410802E+00  3.367142334E+03
9.259589933E+00  3.363521973E+03
9.269769063E+00  3.362955566E+03
9.279948194E+00  3.361189941E+03
9.290127325E+00  3.357433838E+03
9.300306455E+00  3.352905273E+03
9.310485586E+00  3.349152344E+03
9.320664716E+00  3.346280273E+03
9.330843847E+00  3.342563721E+03
9.341022978E+00  3.335328857E+03
9.351202108E+00  3.325655273E+03
9.361381239E+00  3.314845947E+03
9.371560370E+00  3.309377441E+03
9.381739500E+00  3.305976074E+03
9.391918631E+00  3.301887939E+03
9.402097761E+00  3.297378174E+03
9.412276892E+00  3.294333252E+03
9.422456023E+00  3.290533447E+03
9.432635153E+00  3.284669434E+03
9.442814284E+00  3.277213623E+03
9.452993414E+00  3.272719482E+03
9.463172545E+00  3.270325928E+03
9.473351676E+00  3.269611084E+03
9.483530806E+00  3.267313965E+03
9.493709937E+00  3.262554443E+03
9.503889068E+00  3.258356201E+03
9.514068198E+00  3.253505371E+03
9.524247329E+00  3.247717285E+03
9.534426459E+00  3.241366943E+03
9.544605590E+00  3.234845459E+03
9.554784721E+00  3.232544922E+03
9.564963851E+00  3.232022217E+03
9.575142982E+00  3.230824219E+03
9.585322113E+00  3.229125000E+03
9.595501243E+00  3.224906494E+03
9.605680374E+00  3.217791016E+03
9.615859504E+00  3.208311768E+03
9.626038635E+00  3.200878174E+03
9.636217766E+00  3.197356201E+03
9.646396896E+00  3.196440674E+03
9.656576027E+00  3.195845459E+03
9.666755157E+00  3.194497070E+03
9.676934288E+00  3.190690186E+03
9.687113419E+00  3.187054443E+03
9.697292549E+00  3.181610107E+03
9.707471680E+00  3.177312256E+03
9.717650811E+00  3.172769043E+03
9.727829941E+00  3.165745605E+03
9.738009072E+00  3.159525635E+03
9.748188202E+00  3.154741455E+03
9.758367333E+00  3.151414551E+03
9.768546464E+00  3.145721680E+03
9.778725594E+00  3.140620850E+03
9.788904725E+00  3.137734619E+03
9.799083856E+00  3.135122070E+03
9.809262986E+00  3.128591797E+03
9.819442117E+00  3.119975830E+03
9.829621247E+00  3.114856689E+03
9.839800378E+00  3.112367676E+03
9.849979509E+00  3.110337402E+03
9.860158639E+00  3.109093994E+03
9.870337770E+00  3.105542236E+03
9.880516900E+00  3.099809082E+03
9.890696031E+00  3.092753662E+03
9.900875162E+00  3.087244385E+03
9.911054292E+00  3.085031250E+03
9.921233423E+00  3.081755127E+03
9.931412554E+00  3.076380859E+03
9.941591684E+00  3.069414062E+03
9.951770815E+00  3.064332520E+03
9.961949945E+00  3.058682617E+03
9.972129076E+00  3.051331787E+03
9.982308207E+00  3.049371338E+03
9.992487337E+00  3.049736816E+03
1.000266647E+01  3.045604736E+03
1.001284560E+01  3.039345459E+03
1.002302473E+01  3.034984619E+03
1.003320386E+01  3.031448242E+03
1.004338299E+01  3.027255615E+03
1.005356212E+01  3.022766846E+03
1.006374125E+01  3.014654053E+03
1.007392038E+01  3.009227051E+03
1.008409951E+01  3.007560547E+03
1.009427864E+01  3.004887451E+03
1.010445777E+01  3.001083984E+03
1.011463690E+01  2.997983154E+03
1.012481604E+01  2.993103516E+03
1.013499517E+01  2.987694336E+03
1.014517430E+01  2.981475342E+03
1.015535343E+01  2.974029785E+03
1.016553256E+01  2.967284668E+03
1.017571169E+01  2.964166748E+03
1.018589082E+01  2.962386475E+03
1.019606995E+01  2.962141113E+03
1.020624908E+01  2.961251709E+03
1.021642821E+01  2.956256592E+03
1.022660734E+01  2.949362793E+03
1.023678647E+01  2.944259521E+03
1.024696560E+01  2.941530762E+03
1.025714473E+01  2.936045654E+03
1.026732386E+01  2.931458984E+03
1.027750299E+01  2.927146973E+03
1.028768213E+01  2.922610107E+03
1.029786126E+01  2.916976807E+03
1.030804039E+01  2.913015625E+03
1.031821952E+01  2.911475586E+03
1.032839865E+01  2.907045898E+03
1.033857778E+01  2.903495117E+03
1.034875691E+01  2.899408203E+03
1.035893604E+01  2.893725342E+03
1.036911517E+01  2.888029785E+03
1.037929430E+01  2.881867920E+03
1.038947343E+01  2.876347168E+03
1.039965256E+01  2.873656738E+03
1.040983169E+01  2.872418701E+03
1.042001082E+01  2.869685303E+03
1.043018995E+01  2.864051025E+03
1.044036908E+01  2.858213135E+03
1.045054822E+01  2.853424805E+03
1.046072735E+01  2.851045166E+03
1.047090648E+01  2.847042725E+03
1.048108561E+01  2.841265869E+03
1.049126474E+01  2.837212891E+03
1.050144387E+01  2.832817871E+03
1.051162300E+01  2.827552490E+03
1.052180213E+01  2.823601807E+03
1.053198126E+01  2.821457764E+03
1.054216039E+01  2.817084961E+03
1.055233952E+01  2.812360107E+03
1.056251865E+01  2.808312012E+03
1.057269778E+01  2.802284912E+03
1.058287691E+01  2.797593262E+03
1.059305604E+01  2.793120605E+03
1.060323517E+01  2.788473145E+03
1.061341431E+01  2.783809082E+03
1.062359344E+01  2.779861572E+03
1.063377257E+01  2.775527832E+03
1.064395170E+01  2.771396729E+03
1.065413083E+01  2.768629883E+03
1.066430996E+01  2.766727539E+03
1.067448909E+01  2.763231445E+03
1.068466822E+01  2.759745117E+03
1.069484735E+01  2.754210693E+03
1.070502648E+01  2.750169678E+03
1.071520561E+01  2.747824219E+03
1.072538474E+01  2.742000488E+03
1.073556387E+01  2.736353760E+03
1.074574300E+01  2.734010742E+03
1.075592213E+01  2.732451416E+03
1.076610126E+01  2.729718994E+03
1.077628039E+01  2.725139893E+03
1.078645953E+01  2.721903320E+03
1.079663866E+01  2.716731934E+03
1.080681779E+01  2.707797607E+03
1.081699692E+01  2.700078125E+03
1.082717605E+01  2.696467529E+03
1.083735518E+01  2.697687256E+03
1.084753431E+01  2.697099121E+03
1.085771344E+01  2.695242676E+03
1.086789257E+01  2.690001221E+03
1.087807170E+01  2.683029541E+03
1.088825083E+01  2.677265625E+03
1.089842996E+01  2.674422119E+03
1.090860909E+01  2.672724854E+03
1.091878822E+01  2.670382080E+03
1.092896735E+01  2.666876465E+03
1.093914648E+01  2.663154053E+03
1.094932562E+01  2.659697266E+03
1.095950475E+01  2.654820312E+03
1.096968388E+01  2.648712891E+03
1.097986301E+01  2.642988037E+03
1.099004214E+01  2.637298096E+03
1.100022127E+01  2.633226807E+03
1.101040040E+01  2.630467285E+03
1.102057953E+01  2.628370117E+03
1.103075866E+01  2.626965576E+03
1.104093779E+01  2.626658203E+03
1.105111692E+01  2.624294434E+03
1.106129605E+01  2.618336914E+03
1.107147518E+01  2.611455078E+03
1.108165431E+01  2.606973633E+03
1.109183344E+01  2.603236816E+03
1.110201257E+01  2.599181885E+03
1.111219171E+01  2.595250977E+03
1.112237084E+01  2.592138672E+03
1.113254997E+01  2.588117432E+03
1.114272910E+01  2.585716064E+03
1.115290823E+01  2.583747559E+03
1.116308736E+01  2.580664062E+03
1.117326649E+01  2.576946045E+03
1.118344562E+01  2.573493652E+03
1.119362475E+01  2.573544189E+03
1.120380388E+01  2.572023438E+03
1.121398301E+01  2.567988770E+03
1.122416214E+01  2.563257324E+03
1.123434127E+01  2.558681641E+03
1.124452040E+01  2.554388916E+03
1.125469953E+01  2.550868652E+03
1.126487866E+01  2.547146729E+03
1.127505780E+01  2.542021240E+03
1.128523693E+01  2.536799072E+03
1.129541606E+01  2.533352539E+03
1.130559519E+01  2.530896729E+03
1.131577432E+01  2.527366699E+03
1.132595345E+01  2.522951904E+03
1.133613258E+01  2.517936035E+03
1.134631171E+01  2.513881348E+03
1.135649084E+01  2.511114746E+03
1.136666997E+01  2.508391846E+03
1.137684910E+01  2.505697754E+03
1.138702823E+01  2.503374268E+03
1.139720736E+01  2.502616943E+03
1.140738649E+01  2.500081787E+03
1.141756562E+01  2.494946045E+03
1.142774475E+01  2.490495117E+03
1.143792389E+01  2.488187500E+03
1.144810302E+01  2.486145020E+03
1.145828215E+01  2.486784912E+03
1.146846128E+01  2.487027832E+03
1.147864041E+01  2.483417969E+03
1.148881954E+01  2.478375244E+03
1.149899867E+01  2.474387451E+03
1.150917780E+01  2.471892822E+03
1.151935693E+01  2.468446533E+03
1.152953606E+01  2.465382812E+03
1.153971519E+01  2.462526123E+03
1.154989432E+01  2.461386963E+03
1.156007345E+01  2.460713135E+03
1.157025258E+01  2.458240479E+03
1.158043171E+01  2.455343018E+03
1.159061084E+01  2.454062256E+03
1.160078998E+01  2.451231689E+03
1.161096911E+01  2.447787354E+03
1.162114824E+01  2.443582764E+03
1.163132737E+01  2.440461426E+03
1.164150650E+01  2.439802002E+03
1.165168563E+01  2.439008789E+03
1.166186476E+01  2.434221680E+03
1.167204389E+01  2.429827148E+03
1.168222302E+01  2.427554688E+03
1.169240215E+01  2.423625732E+03
1.170258128E+01  2.419655762E+03
1.171276041E+01  2.417346680E+03
1.172293954E+01  2.412935547E+03
1.173311867E+01  2.408599121E+03
1.174329780E+01  2.404963135E+03
1.175347693E+01  2.400428711E+03
1.176365606E+01  2.394203613E+03
1.177383520E+01  2.389145264E+03
1.178401433E+01  2.387920410E+03
1.179419346E+01  2.389898193E+03
1.180437259E+01  2.390969238E+03
1.181455172E+01  2.388829834E+03
1.182473085E+01  2.386339355E+03
1.183490998E+01  2.383175049E+03
1.184508911E+01  2.380804199E+03
1.185526824E+01  2.378827637E+03
1.186544737E+01  2.374710938E+03
1.187562650E+01  2.369720703E+03
1.188580563E+01  2.366143555E+03
1.189598476E+01  2.363136475E+03
1.190616389E+01  2.359918213E+03
1.191634302E+01  2.358126221E+03
1.192652215E+01  2.358474121E+03
1.193670129E+01  2.356250488E+03
1.194688042E+01  2.349678223E+03
1.195705955E+01  2.345326172E+03
1.196723868E+01  2.343507324E+03
1.197741781E+01  2.341869385E+03
1.198759694E+01  2.340669922E+03
1.199777607E+01  2.337990967E+03
1.200795520E+01  2.334492188E+03
1.201813433E+01  2.330833252E+03
1.202831346E+01  2.325993652E+03
1.203849259E+01  2.319778809E+03
1.204867172E+01  2.313728271E+03
1.205885085E+01  2.309912109E+03
1.206902998E+01  2.308889404E+03
1.207920911E+01  2.308864746E+03
1.208938824E+01  2.307186768E+03
1.209956738E+01  2.306306396E+03
1.210974651E+01  2.305289795E+03
1.211992564E+01  2.303232666E+03
1.213010477E+01  2.300298828E+03
1.214028390E+01  2.297053467E+03
1.215046303E+01  2.294643799E+03
1.216064216E+01  2.295378418E+03
1.217082129E+01  2.295799561E+03
1.218100042E+01  2.292798828E+03
1.219117955E+01  2.287602539E+03
1.220135868E+01  2.282868164E+03
1.221153781E+01  2.278930908E+03
1.222171694E+01  2.277250244E+03
1.223189607E+01  2.276108887E+03
1.224207520E+01  2.273552979E+03
1.225225433E+01  2.269502441E+03
1.226243347E+01  2.267703369E+03
1.227261260E+01  2.263218994E+03
1.228279173E+01  2.258537109E+03
1.229297086E+01  2.256483643E+03
1.230314999E+01  2.254748779E+03
1.231332912E+01  2.250398193E+03
1.232350825E+01  2.247645508E+03
1.233368738E+01  2.245062988E+03
1.234386651E+01  2.242111084E+03
1.235404564E+01  2.237852539E+03
1.236422477E+01  2.234552002E+03
1.237440390E+01  2.233746582E+03
1.238458303E+01  2.231430420E+03
1.239476216E+01  2.227247314E+03
1.240494129E+01  2.224636963E+03
1.241512042E+01  2.224055664E+03
1.242529956E+01  2.223366211E+03
1.243547869E+01  2.222325439E+03
1.244565782E+01  2.220720947E+03
1.245583695E+01  2.217950684E+03
1.246601608E+01  2.215943359E+03
1.247619521E+01  2.214028564E+03
1.248637434E+01  2.210432617E+03
1.249655347E+01  2.205371094E+03
1.250673260E+01  2.201384766E+03
1.251691173E+01  2.199622314E+03
1.252709086E+01  2.198068359E+03
1.253726999E+01  2.194768555E+03
1.254744912E+01  2.193349121E+03
1.255762825E+01  2.192808105E+03
1.256780738E+01  2.192214844E+03
1.257798651E+01  2.191570801E+03
1.258816565E+01  2.190204102E+03
1.259834478E+01  2.188745605E+03
1.260852391E+01  2.185818604E+03
1.261870304E+01  2.181938721E+03
1.262888217E+01  2.177368896E+03
1.263906130E+01  2.173553711E+03
1.264924043E+01  2.169407715E+03
1.265941956E+01  2.166204346E+03
1.266959869E+01  2.163843262E+03
1.267977782E+01  2.162301758E+03
1.268995695E+01  2.160850586E+03
1.270013608E+01  2.157819824E+03
1.271031521E+01  2.156610107E+03
1.272049434E+01  2.153918945E+03
1.273067347E+01  2.149724365E+03
1.274085260E+01  2.144552246E+03
1.275103173E+01  2.143088867E+03
1.276121087E+01  2.144007568E+03
1.277139000E+01  2.143062500E+03
1.278156913E+01  2.138944336E+03
1.279174826E+01  2.135517334E+03
1.280192739E+01  2.132761963E+03
1.281210652E+01  2.129825195E+03
1.282228565E+01  2.127033447E+03
1.283246478E+01  2.124795166E+03
1.284264391E+01  2.122109863E+03
1.285282304E+01  2.121416748E+03
1.286300217E+01  2.121545166E+03
1.287318130E+01  2.117721191E+03
1.288336043E+01  2.114399414E+03
1.289353956E+01  2.112506836E+03
1.290371869E+01  2.111530029E+03
1.291389782E+01  2.112298096E+03
1.292407696E+01  2.113122070E+03
1.293425609E+01  2.109692871E+03
1.294443522E+01  2.105711426E+03
1.295461435E+01  2.100716797E+03
1.296479348E+01  2.099614502E+03
1.297497261E+01  2.098333984E+03
1.298515174E+01  2.094648193E+03
1.299533087E+01  2.090529785E+03
1.300551000E+01  2.089171875E+03
1.301568913E+01  2.087677246E+03
1.302586826E+01  2.085958984E+03
1.303604739E+01  2.083131348E+03
1.304622652E+01  2.079679688E+03
1.305640565E+01  2.075568604E+03
1.306658478E+01  2.073528564E+03
1.307676391E+01  2.073165039E+03
1.308694305E+01  2.072392578E+03
1.309712218E+01  2.069857910E+03
1.310730131E+01  2.065407715E+03
1.311748044E+01  2.061503174E+03
1.312765957E+01  2.058460449E+03
1.313783870E+01  2.056920654E+03
1.314801783E+01  2.055604492E+03
1.315819696E+01  2.055721924E+03
1.316837609E+01  2.057870850E+03
1.317855522E+01  2.057029785E+03
1.318873435E+01  2.052645752E+03
1.319891348E+01  2.050147461E+03
1.320909261E+01  2.047145508E+03
1.321927174E+01  2.043738281E+03
1.322945087E+01  2.039651001E+03
1.323963000E+01  2.036996582E+03
1.324980914E+01  2.035224243E+03
1.325998827E+01  2.035016724E+03
1.327016740E+01  2.033835449E+03
1.328034653E+01  2.032242310E+03
1.329052566E+01  2.029797485E+03
1.330070479E+01  2.029601562E+03
1.331088392E+01  2.028842773E+03
1.332106305E+01  2.026484009E+03
1.333124218E+01  2.022098999E+03
1.334142131E+01  2.019523560E+03
1.335160044E+01  2.018096069E+03
1.336177957E+01  2.016950928E+03
1.337195870E+01  2.014328979E+03
1.338213783E+01  2.012302002E+03
1.339231696E+01  2.010170898E+03
1.340249609E+01  2.008854858E+03
1.341267523E+01  2.007680054E+03
1.342285436E+01  2.004625854E+03
1.343303349E+01  1.999888062E+03
1.344321262E+01  1.995434814E+03
1.345339175E+01  1.993302246E+03
1.346357088E+01  1.992286987E+03
1.347375001E+01  1.992033936E+03
1.348392914E+01  1.990897217E+03
1.349410827E+01  1.989277100E+03
1.350428740E+01  1.987759766E+03
1.351446653E+01  1.984445312E+03
1.352464566E+01  1.981852295E+03
1.353482479E+01  1.980903931E+03
1.354500392E+01  1.980061279E+03
1.355518305E+01  1.980109619E+03
1.356536218E+01  1.980687378E+03
1.357554132E+01  1.978195923E+03
1.358572045E+01  1.972480103E+03
1.359589958E+01  1.968457520E+03
1.360607871E+01  1.967055542E+03
1.361625784E+01  1.966368286E+03
1.362643697E+01  1.964580200E+03
1.363661610E+01  1.962946533E+03
1.364679523E+01  1.961856445E+03
1.365697436E+01  1.960463257E+03
1.366715349E+01  1.960044189E+03
1.367733262E+01  1.956052490E+03
1.368751175E+01  1.951529785E+03
1.369769088E+01  1.948577026E+03
1.370787001E+01  1.949006592E+03
1.371804914E+01  1.949566284E+03
1.372822827E+01  1.950640991E+03
1.373840741E+01  1.951015991E+03
1.374858654E+01  1.949493164E+03
1.375876567E+01  1.944762695E+03
1.376894480E+01  1.938817993E+03
1.377912393E+01  1.935111206E+03
1.378930306E+01  1.934018311E+03
1.379948219E+01  1.932520264E+03
1.380966132E+01  1.932194946E+03
1.381984045E+01  1.931349243E+03
1.383001958E+01  1.929672363E+03
1.384019871E+01  1.927815552E+03
1.385037784E+01  1.925583740E+03
1.386055697E+01  1.923345215E+03
1.387073610E+01  1.923688721E+03
1.388091523E+01  1.924964966E+03
1.389109436E+01  1.921711426E+03
1.390127349E+01  1.917372559E+03
1.391145263E+01  1.916383179E+03
1.392163176E+01  1.917745605E+03
1.393181089E+01  1.916419800E+03
1.394199002E+01  1.915140015E+03
1.395216915E+01  1.914114624E+03
1.396234828E+01  1.914333252E+03
1.397252741E+01  1.915057617E+03
1.398270654E+01  1.914251343E+03
1.399288567E+01  1.910736084E+03
1.400306480E+01  1.904856689E+03
1.401324393E+01  1.898742920E+03
1.402342306E+01  1.894981812E+03
1.403360219E+01  1.892862061E+03
1.404378132E+01  1.891788940E+03
1.405396045E+01  1.890017456E+03
1.406413958E+01  1.888501831E+03
1.407431872E+01  1.888384521E+03
1.408449785E+01  1.888767578E+03
1.409467698E+01  1.888272095E+03
1.410485611E+01  1.887252930E+03
1.411503524E+01  1.885434814E+03
1.412521437E+01  1.881574097E+03
1.413539350E+01  1.877846802E+03
1.414557263E+01  1.874913452E+03
1.415575176E+01  1.872888306E+03
1.416593089E+01  1.872664673E+03
1.417611002E+01  1.874068848E+03
1.418628915E+01  1.873742676E+03
1.419646828E+01  1.873415283E+03
1.420664741E+01  1.870394775E+03
1.421682654E+01  1.865292114E+03
1.422700567E+01  1.860151855E+03
1.423718481E+01  1.858081421E+03
1.424736394E+01  1.858074951E+03
1.425754307E+01  1.858295166E+03
1.426772220E+01  1.857102783E+03
1.427790133E+01  1.855068604E+03
1.428808046E+01  1.855077515E+03
1.429825959E+01  1.856801270E+03
1.430843872E+01  1.855798340E+03
1.431861785E+01  1.852997437E+03
1.432879698E+01  1.851730469E+03
1.433897611E+01  1.848714478E+03
1.434915524E+01  1.845271729E+03
1.435933437E+01  1.843961060E+03
1.436951350E+01  1.843397583E+03
1.437969263E+01  1.842453369E+03
1.438987176E+01  1.840044800E+03
1.440005090E+01  1.837846191E+03
1.441023003E+01  1.836621094E+03
1.442040916E+01  1.835800659E+03
1.443058829E+01  1.834538086E+03
1.444076742E+01  1.832930664E+03
1.445094655E+01  1.831203735E+03
1.446112568E+01  1.830236816E+03
1.447130481E+01  1.828431274E+03
1.448148394E+01  1.826015381E+03
1.449166307E+01  1.822988037E+03
1.450184220E+01  1.821475586E+03
1.451202133E+01  1.819829590E+03
1.452220046E+01  1.820720093E+03
1.453237959E+01  1.820627930E+03
1.454255872E+01  1.818142334E+03
1.455273785E+01  1.816295044E+03
1.456291699E+01  1.817486206E+03
1.457309612E+01  1.818089844E+03
1.458327525E+01  1.817580078E+03
1.459345438E+01  1.815093018E+03
1.460363351E+01  1.812537964E+03
1.461381264E+01  1.810416138E+03
1.462399177E+01  1.808152710E+03
1.463417090E+01  1.805734009E+03
1.464435003E+01  1.805525146E+03
1.465452916E+01  1.806399536E+03
1.466470829E+01  1.805302612E+03
1.467488742E+01  1.803369995E+03
1.468506655E+01  1.801943848E+03
1.469524568E+01  1.801078857E+03
1.470542481E+01  1.800668091E+03
1.471560394E+01  1.799359863E+03
1.472578308E+01  1.796491699E+03
1.473596221E+01  1.793353882E+03
1.474614134E+01  1.792129761E+03
1.475632047E+01  1.791704102E+03
1.476649960E+01  1.789956299E+03
1.477667873E+01  1.789419678E+03
1.478685786E+01  1.789181030E+03
1.479703699E+01  1.788302002E+03
1.480721612E+01  1.784876831E+03
1.481739525E+01  1.783226440E+03
1.482757438E+01  1.783109009E+03
1.483775351E+01  1.781442993E+03
1.484793264E+01  1.778817505E+03
1.485811177E+01  1.775983887E+03
1.486829090E+01  1.777054077E+03
1.487847003E+01  1.778285767E+03
1.488864916E+01  1.778660156E+03
1.489882830E+01  1.777851807E+03
1.490900743E+01  1.776723267E+03
1.491918656E+01  1.774660645E+03
1.492936569E+01  1.773455078E+03
1.493954482E+01  1.772451660E+03
1.494972395E+01  1.772030762E+03
1.495990308E+01  1.773207764E+03
1.497008221E+01  1.773959229E+03
1.498026134E+01  1.772928955E+03
1.499044047E+01  1.770827515E+03
1.500061960E+01  1.769269287E+03
1.501079873E+01  1.766798950E+03
1.502097786E+01  1.761962158E+03
1.503115699E+01  1.760024902E+03
1.504133612E+01  1.759817627E+03
1.505151525E+01  1.758351562E+03
1.506169439E+01  1.755733032E+03
1.507187352E+01  1.754317871E+03
1.508205265E+01  1.754187012E+03
1.509223178E+01  1.754766113E+03
1.510241091E+01  1.755158081E+03
1.511259004E+01  1.754197876E+03
1.512276917E+01  1.753447876E+03
1.513294830E+01  1.752719238E+03
1.514312743E+01  1.751122314E+03
1.515330656E+01  1.748306030E+03
1.516348569E+01  1.746399658E+03
1.517366482E+01  1.747531494E+03
1.518384395E+01  1.747127197E+03
1.519402308E+01  1.744481934E+03
1.520420221E+01  1.741869141E+03
1.521438134E+01  1.741199219E+03
1.522456048E+01  1.740116699E+03
1.523473961E+01  1.739464355E+03
1.524491874E+01  1.739762329E+03
1.525509787E+01  1.741305298E+03
1.526527700E+01  1.739578613E+03
1.527545613E+01  1.737270020E+03
1.528563526E+01  1.736323364E+03
1.529581439E+01  1.735826904E+03
1.530599352E+01  1.736152466E+03
1.531617265E+01  1.735082764E+03
1.532635178E+01  1.733855347E+03
1.533653091E+01  1.733803467E+03
1.534671004E+01  1.733081055E+03
1.535688917E+01  1.733611938E+03
1.536706830E+01  1.735224731E+03
1.537724743E+01  1.733078979E+03
1.538742657E+01  1.729877319E+03
1.539760570E+01  1.726431152E+03
1.540778483E+01  1.724238037E+03
1.541796396E+01  1.720482910E+03
1.542814309E+01  1.716428589E+03
1.543832222E+01  1.715104858E+03
1.544850135E+01  1.715850220E+03
1.545868048E+01  1.716406860E+03
1.546885961E+01  1.716233887E+03
1.547903874E+01  1.715861572E+03
1.548921787E+01  1.716152954E+03
1.549939700E+01  1.716600952E+03
1.550957613E+01  1.716692871E+03
1.551975526E+01  1.715469971E+03
1.552993439E+01  1.713043335E+03
1.554011352E+01  1.712931274E+03
1.555029266E+01  1.711853149E+03
1.556047179E+01  1.711491943E+03
1.557065092E+01  1.711139404E+03
1.558083005E+01  1.708328125E+03
1.559100918E+01  1.704733276E+03
1.560118831E+01  1.703099854E+03
1.561136744E+01  1.702915283E+03
1.562154657E+01  1.702576904E+03
1.563172570E+01  1.702961060E+03
1.564190483E+01  1.703461792E+03
1.565208396E+01  1.701701538E+03
1.566226309E+01  1.698933472E+03
1.567244222E+01  1.696917480E+03
1.568262135E+01  1.696225830E+03
1.569280048E+01  1.696369751E+03
1.570297961E+01  1.696256226E+03
1.571315875E+01  1.697352051E+03
1.572333788E+01  1.696274048E+03
1.573351701E+01  1.695255615E+03
1.574369614E+01  1.694422485E+03
1.575387527E+01  1.691812378E+03
1.576405440E+01  1.690619751E+03
1.577423353E+01  1.691190430E+03
1.578441266E+01  1.691177490E+03
1.579459179E+01  1.689129150E+03
1.580477092E+01  1.686751709E+03
1.581495005E+01  1.685469360E+03
1.582512918E+01  1.684564575E+03
1.583530831E+01  1.681905151E+03
1.584548744E+01  1.679853760E+03
1.585566657E+01  1.678438599E+03
1.586584570E+01  1.677512085E+03
1.587602483E+01  1.677088379E+03
1.588620397E+01  1.677670532E+03
1.589638310E+01  1.677218506E+03
1.590656223E+01  1.676411987E+03
1.591674136E+01  1.675454468E+03
1.592692049E+01  1.673750244E+03
1.593709962E+01  1.673111572E+03
1.594727875E+01  1.673002563E+03
1.595745788E+01  1.669903442E+03
1.596763701E+01  1.666625977E+03
1.597781614E+01  1.665693604E+03
1.598799527E+01  1.665635742E+03
1.599817440E+01  1.665927368E+03
1.600835353E+01  1.665702515E+03
1.601853266E+01  1.665828125E+03
1.602871179E+01  1.663974976E+03
1.603889092E+01  1.663425537E+03
1.604907006E+01  1.663673706E+03
1.605924919E+01  1.662857300E+03
1.606942832E+01  1.661329102E+03
1.607960745E+01  1.659951050E+03
1.608978658E+01  1.658611328E+03
1.609996571E+01  1.655989990E+03
1.611014484E+01  1.655769775E+03
1.612032397E+01  1.655392944E+03
1.613050310E+01  1.653981201E+03
1.614068223E+01  1.652829956E+03
1.615086136E+01  1.653145020E+03
1.616104049E+01  1.651932861E+03
1.617121962E+01  1.649748779E+03
1.618139875E+01  1.648656860E+03
1.619157788E+01  1.648478149E+03
1.620175701E+01  1.647148560E+03
1.621193615E+01  1.647862305E+03
1.622211528E+01  1.647973145E+03
1.623229441E+01  1.647294189E+03
1.624247354E+01  1.646738647E+03
1.625265267E+01  1.645491089E+03
1.626283180E+01  1.644993652E+03
1.627301093E+01  1.644127075E+03
1.628319006E+01  1.643370483E+03
1.629336919E+01  1.641927612E+03
1.630354832E+01  1.640756714E+03
1.631372745E+01  1.637773193E+03
1.632390658E+01  1.635958984E+03
1.633408571E+01  1.636669189E+03
1.634426484E+01  1.637477783E+03
1.635444397E+01  1.636758789E+03
1.636462310E+01  1.635581421E+03
1.637480224E+01  1.635517456E+03
1.638498137E+01  1.634707886E+03
1.639516050E+01  1.634452393E+03
1.640533963E+01  1.634371338E+03
1.641551876E+01  1.634000488E+03
1.642569789E+01  1.631413452E+03
1.643587702E+01  1.629841919E+03
1.644605615E+01  1.628864624E+03
1.645623528E+01  1.627075317E+03
1.646641441E+01  1.625594604E+03
1.647659354E+01  1.626566650E+03
1.648677267E+01  1.626813965E+03
1.649695180E+01  1.625581177E+03
1.650713093E+01  1.624359985E+03
1.651731006E+01  1.622961914E+03
1.652748919E+01  1.621847656E+03
1.653766833E+01  1.621301392E+03
1.654784746E+01  1.621401978E+03
1.655802659E+01  1.619823608E+03
1.656820572E+01  1.619319092E+03
1.657838485E+01  1.618072632E+03
1.658856398E+01  1.616907593E+03
1.659874311E+01  1.616475098E+03
1.660892224E+01  1.616074585E+03
1.661910137E+01  1.614578125E+03
1.662928050E+01  1.613313599E+03
1.663945963E+01  1.612243408E+03
1.664963876E+01  1.609583374E+03
1.665981789E+01  1.607791504E+03
1.666999702E+01  1.606768311E+03
1.668017615E+01  1.606499756E+03
1.669035528E+01  1.605574707E+03
1.670053442E+01  1.604572998E+03
1.671071355E+01  1.604951660E+03
1.672089268E+01  1.605631592E+03
1.673107181E+01  1.605476440E+03
1.674125094E+01  1.606447876E+03
1.675143007E+01  1.604910522E+03
1.676160920E+01  1.602750122E+03
1.677178833E+01  1.600791992E+03
1.678196746E+01  1.599323120E+03
1.679214659E+01  1.598618164E+03
1.680232572E+01  1.596395996E+03
1.681250485E+01  1.595467285E+03
1.682268398E+01  1.594694336E+03
1.683286311E+01  1.594179077E+03
1.684304224E+01  1.593464600E+03
1.685322137E+01  1.591932007E+03
1.686340050E+01  1.590247070E+03
1.687357964E+01  1.590648804E+03
1.688375877E+01  1.590348145E+03
1.689393790E+01  1.588977783E+03
1.690411703E+01  1.587844238E+03
1.691429616E+01  1.587330078E+03
1.692447529E+01  1.585874512E+03
1.693465442E+01  1.585052979E+03
1.694483355E+01  1.585642090E+03
1.695501268E+01  1.584662231E+03
1.696519181E+01  1.583500610E+03
1.697537094E+01  1.582049561E+03
1.698555007E+01  1.580534058E+03
1.699572920E+01  1.578977417E+03
1.700590833E+01  1.579522461E+03
1.701608746E+01  1.579261353E+03
1.702626659E+01  1.578904663E+03
1.703644573E+01  1.577671387E+03
1.704662486E+01  1.576580811E+03
1.705680399E+01  1.576823730E+03
1.706698312E+01  1.576532349E+03
1.707716225E+01  1.575741699E+03
1.708734138E+01  1.575785278E+03
1.709752051E+01  1.575570557E+03
1.710769964E+01  1.573019775E+03
1.711787877E+01  1.572194092E+03
1.712805790E+01  1.572973022E+03
1.713823703E+01  1.572888794E+03
1.714841616E+01  1.569795288E+03
1.715859529E+01  1.568234497E+03
1.716877442E+01  1.569274170E+03
1.717895355E+01  1.569790527E+03
1.718913268E+01  1.569092407E+03
1.719931182E+01  1.568238892E+03
1.720949095E+01  1.567983887E+03
1.721967008E+01  1.566455566E+03
1.722984921E+01  1.567104980E+03
1.724002834E+01  1.567068481E+03
1.725020747E+01  1.565410889E+03
1.726038660E+01  1.564003418E+03
1.727056573E+01  1.563017700E+03
1.728074486E+01  1.561915649E+03
1.729092399E+01  1.560667725E+03
1.730110312E+01  1.560226929E+03
1.731128225E+01  1.560138916E+03
1.732146138E+01  1.558457275E+03
1.733164051E+01  1.557655884E+03
1.734181964E+01  1.557263916E+03
1.735199877E+01  1.555167114E+03
1.736217791E+01  1.554306396E+03
1.737235704E+01  1.554048950E+03
1.738253617E+01  1.554875732E+03
1.739271530E+01  1.555059814E+03
1.740289443E+01  1.553520874E+03
1.741307356E+01  1.551382690E+03
1.742325269E+01  1.550365967E+03
1.743343182E+01  1.549513428E+03
1.744361095E+01  1.548454712E+03
1.745379008E+01  1.548690308E+03
1.746396921E+01  1.549042603E+03
1.747414834E+01  1.549400024E+03
1.748432747E+01  1.550440186E+03
1.749450660E+01  1.549986450E+03
1.750468573E+01  1.549054932E+03
1.751486486E+01  1.546357666E+03
1.752504400E+01  1.542834595E+03
1.753522313E+01  1.541779419E+03
1.754540226E+01  1.541680542E+03
1.755558139E+01  1.540854492E+03
1.756576052E+01  1.541715332E+03
1.757593965E+01  1.541577271E+03
1.758611878E+01  1.541348999E+03
1.759629791E+01  1.541530884E+03
1.760647704E+01  1.540915527E+03
1.761665617E+01  1.539076782E+03
1.762683530E+01  1.537708252E+03
1.763701443E+01  1.537331909E+03
1.764719356E+01  1.535918945E+03
1.765737269E+01  1.534121826E+03
1.766755182E+01  1.532724854E+03
1.767773095E+01  1.532196167E+03
1.768791009E+01  1.532104004E+03
1.769808922E+01  1.532194336E+03
1.770826835E+01  1.529811890E+03
1.771844748E+01  1.527991333E+03
1.772862661E+01  1.528063843E+03
1.773880574E+01  1.529150269E+03
1.774898487E+01  1.528844482E+03
1.775916400E+01  1.528501465E+03
1.776934313E+01  1.529049805E+03
1.777952226E+01  1.527142212E+03
1.778970139E+01  1.524157227E+03
1.779988052E+01  1.524127563E+03
1.781005965E+01  1.525156128E+03
1.782023878E+01  1.525524414E+03
1.783041791E+01  1.526235596E+03
1.784059704E+01  1.524783691E+03
1.785077618E+01  1.522347290E+03
1.786095531E+01  1.519572998E+03
1.787113444E+01  1.518053955E+03
1.788131357E+01  1.517861938E+03
1.789149270E+01  1.518970947E+03
1.790167183E+01  1.520654541E+03
1.791185096E+01  1.519245361E+03
1.792203009E+01  1.517879150E+03
1.793220922E+01  1.516335938E+03
1.794238835E+01  1.513270508E+03
1.795256748E+01  1.511019165E+03
1.796274661E+01  1.511418213E+03
1.797292574E+01  1.513292358E+03
1.798310487E+01  1.514476929E+03
1.799328400E+01  1.514689941E+03
1.800346313E+01  1.514308716E+03
1.801364226E+01  1.514648926E+03
1.802382140E+01  1.514427368E+03
1.803400053E+01  1.514317261E+03
1.804417966E+01  1.513123291E+03
1.805435879E+01  1.512800903E+03
1.806453792E+01  1.514786255E+03
1.807471705E+01  1.516604248E+03
1.808489618E+01  1.520358887E+03
1.809507531E+01  1.524337646E+03
1.810525444E+01  1.525745850E+03
1.811543357E+01  1.526076660E+03
1.812561270E+01  1.526913330E+03
1.813579183E+01  1.526795898E+03
1.814597096E+01  1.524914551E+03
1.815615009E+01  1.522437988E+03
1.816632922E+01  1.521723511E+03
1.817650835E+01  1.518904419E+03
1.818668749E+01  1.514914185E+03
1.819686662E+01  1.512189697E+03
1.820704575E+01  1.508908813E+03
1.821722488E+01  1.506999512E+03
1.822740401E+01  1.505061035E+03
1.823758314E+01  1.502141602E+03
1.824776227E+01  1.499344482E+03
1.825794140E+01  1.498690186E+03
1.826812053E+01  1.498081543E+03
1.827829966E+01  1.496647583E+03
1.828847879E+01  1.495884521E+03
1.829865792E+01  1.495408691E+03
1.830883705E+01  1.493008911E+03
1.831901618E+01  1.490666748E+03
1.832919531E+01  1.490325195E+03
1.833937444E+01  1.490873779E+03
1.834955358E+01  1.491145264E+03
1.835973271E+01  1.490894775E+03
1.836991184E+01  1.491605469E+03
1.838009097E+01  1.491684937E+03
1.839027010E+01  1.490064453E+03
1.840044923E+01  1.486714111E+03
1.841062836E+01  1.484405884E+03
1.842080749E+01  1.483452026E+03
1.843098662E+01  1.482486206E+03
1.844116575E+01  1.481383667E+03
1.845134488E+01  1.480342529E+03
1.846152401E+01  1.480539551E+03
1.847170314E+01  1.480176636E+03
1.848188227E+01  1.478714966E+03
1.849206140E+01  1.477446655E+03
1.850224053E+01  1.476525269E+03
1.851241967E+01  1.476196411E+03
1.852259880E+01  1.474605957E+03
1.853277793E+01  1.473102051E+03
1.854295706E+01  1.473824097E+03
1.855313619E+01  1.475710449E+03
1.856331532E+01  1.476284058E+03
1.857349445E+01  1.475494995E+03
1.858367358E+01  1.474430908E+03
1.859385271E+01  1.472566040E+03
1.860403184E+01  1.470586670E+03
1.861421097E+01  1.469140503E+03
1.862439010E+01  1.467546143E+03
1.863456923E+01  1.466218384E+03
1.864474836E+01  1.467614258E+03
1.865492749E+01  1.469479492E+03
1.866510662E+01  1.469427612E+03
1.867528576E+01  1.468988525E+03
1.868546489E+01  1.468592041E+03
1.869564402E+01  1.466440186E+03
1.870582315E+01  1.464075562E+03
1.871600228E+01  1.464703735E+03
1.872618141E+01  1.466317871E+03
1.873636054E+01  1.466171265E+03
1.874653967E+01  1.465318481E+03
1.875671880E+01  1.464552490E+03
1.876689793E+01  1.463154907E+03
1.877707706E+01  1.461973755E+03
1.878725619E+01  1.460638550E+03
1.879743532E+01  1.460649902E+03
1.880761445E+01  1.462102051E+03
1.881779358E+01  1.464080444E+03
1.882797271E+01  1.465277710E+03
1.883815185E+01  1.464956665E+03
1.884833098E+01  1.464396606E+03
1.885851011E+01  1.463779785E+03
1.886868924E+01  1.464037598E+03
1.887886837E+01  1.466084717E+03
1.888904750E+01  1.466286743E+03
1.889922663E+01  1.465873779E+03
1.890940576E+01  1.466168091E+03
1.891958489E+01  1.465645508E+03
1.892976402E+01  1.465064819E+03
1.893994315E+01  1.465523071E+03
1.895012228E+01  1.465577026E+03
1.896030141E+01  1.464438599E+03
1.897048054E+01  1.463502075E+03
1.898065967E+01  1.464098633E+03
1.899083880E+01  1.464663818E+03
1.900101793E+01  1.465809692E+03
1.901119707E+01  1.465779053E+03
1.902137620E+01  1.463712158E+03
1.903155533E+01  1.462247803E+03
1.904173446E+01  1.461363770E+03
1.905191359E+01  1.460890991E+03
1.906209272E+01  1.459702759E+03
1.907227185E+01  1.457984375E+03
1.908245098E+01  1.456401733E+03
1.909263011E+01  1.456722412E+03
1.910280924E+01  1.456517944E+03
1.911298837E+01  1.456022339E+03
1.912316750E+01  1.456137573E+03
1.913334663E+01  1.454539062E+03
1.914352576E+01  1.452447388E+03
1.915370489E+01  1.450388916E+03
1.916388402E+01  1.448778687E+03
1.917406316E+01  1.446212158E+03
1.918424229E+01  1.445290283E+03
1.919442142E+01  1.445672485E+03
1.920460055E+01  1.445027832E+03
1.921477968E+01  1.443777710E+03
1.922495881E+01  1.443300415E+03
1.923513794E+01  1.444820190E+03
1.924531707E+01  1.443847046E+03
1.925549620E+01  1.442023193E+03
1.926567533E+01  1.441408325E+03
1.927585446E+01  1.440862549E+03
1.928603359E+01  1.440074463E+03
1.929621272E+01  1.440298706E+03
1.930639185E+01  1.440169434E+03
1.931657098E+01  1.437729858E+03
1.932675011E+01  1.435381470E+03
1.933692925E+01  1.433695068E+03
1.934710838E+01  1.432939819E+03
1.935728751E+01  1.432394897E+03
1.936746664E+01  1.432224121E+03
1.937764577E+01  1.431584717E+03
1.938782490E+01  1.431088989E+03
1.939800403E+01  1.429630493E+03
1.940818316E+01  1.427600586E+03
1.941836229E+01  1.427367554E+03
1.942854142E+01  1.426681030E+03
1.943872055E+01  1.424901733E+03
1.944889968E+01  1.425113770E+03
1.945907881E+01  1.426775879E+03
1.946925794E+01  1.427159424E+03
1.947943707E+01  1.427362305E+03
1.948961620E+01  1.427528198E+03
1.949979534E+01  1.425975220E+03
1.950997447E+01  1.422756958E+03
1.952015360E+01  1.420563477E+03
1.953033273E+01  1.419949341E+03
1.954051186E+01  1.420394043E+03
1.955069099E+01  1.421364502E+03
1.956087012E+01  1.421035278E+03
1.957104925E+01  1.421268066E+03
1.958122838E+01  1.423396484E+03
1.959140751E+01  1.423719116E+03
1.960158664E+01  1.423264404E+03
1.961176577E+01  1.423625854E+03
1.962194490E+01  1.424534058E+03
1.963212403E+01  1.423914062E+03
1.964230316E+01  1.422690918E+03
1.965248229E+01  1.423146851E+03
1.966266143E+01  1.424020630E+03
1.967284056E+01  1.424654297E+03
1.968301969E+01  1.424776489E+03
1.969319882E+01  1.423038574E+03
1.970337795E+01  1.419915527E+03
1.971355708E+01  1.417430298E+03
1.972373621E+01  1.415786621E+03
1.973391534E+01  1.415382446E+03
1.974409447E+01  1.415775024E+03
1.975427360E+01  1.415764893E+03
1.976445273E+01  1.413654419E+03
1.977463186E+01  1.412637573E+03
1.978481099E+01  1.414057251E+03
1.979499012E+01  1.413792603E+03
1.980516925E+01  1.412592163E+03
1.981534838E+01  1.412237671E+03
1.982552752E+01  1.412443726E+03
1.983570665E+01  1.412332153E+03
1.984588578E+01  1.410902954E+03
1.985606491E+01  1.408820557E+03
1.986624404E+01  1.407908325E+03
1.987642317E+01  1.409108765E+03
1.988660230E+01  1.408679199E+03
1.989678143E+01  1.408057495E+03
1.990696056E+01  1.407168213E+03
1.991713969E+01  1.406520996E+03
1.992731882E+01  1.405260254E+03
1.993749795E+01  1.403713013E+03
1.994767708E+01  1.401786865E+03
1.995785621E+01  1.401139526E+03
1.996803534E+01  1.401636475E+03
1.997821447E+01  1.401524902E+03
1.998839360E+01  1.401014771E+03
1.999857274E+01  1.399901001E+03
2.000875187E+01  1.399561768E+03
2.001893100E+01  1.399127930E+03
2.002911013E+01  1.399146484E+03
2.003928926E+01  1.400884521E+03
2.004946839E+01  1.401809937E+03
2.005964752E+01  1.401396729E+03
2.006982665E+01  1.400354736E+03
2.008000578E+01  1.399650024E+03
2.009018491E+01  1.398951904E+03
2.010036404E+01  1.398916626E+03
2.011054317E+01  1.398157715E+03
2.012072230E+01  1.397816895E+03
2.013090143E+01  1.396753662E+03
2.014108056E+01  1.393937500E+03
2.015125969E+01  1.392139771E+03
2.016143883E+01  1.392250610E+03
2.017161796E+01  1.391786377E+03
2.018179709E+01  1.389937134E+03
2.019197622E+01  1.389165039E+03
2.020215535E+01  1.389610107E+03
2.021233448E+01  1.389320435E+03
2.022251361E+01  1.388589966E+03
2.023269274E+01  1.388307739E+03
2.024287187E+01  1.388562500E+03
2.025305100E+01  1.389200195E+03
2.026323013E+01  1.389247070E+03
2.027340926E+01  1.387265381E+03
2.028358839E+01  1.385069824E+03
2.029376752E+01  1.384412109E+03
2.030394665E+01  1.383743774E+03
2.031412578E+01  1.383957397E+03
2.032430492E+01  1.384971191E+03
2.033448405E+01  1.385083130E+03
2.034466318E+01  1.385827026E+03
2.035484231E+01  1.386052734E+03
2.036502144E+01  1.384821289E+03
2.037520057E+01  1.384630737E+03
2.038537970E+01  1.384029907E+03
2.039555883E+01  1.381239990E+03
2.040573796E+01  1.380550903E+03
2.041591709E+01  1.382897461E+03
2.042609622E+01  1.384598999E+03
2.043627535E+01  1.383524414E+03
2.044645448E+01  1.381353516E+03
2.045663361E+01  1.380865112E+03
2.046681274E+01  1.380302612E+03
2.047699187E+01  1.380346680E+03
2.048717101E+01  1.379924194E+03
2.049735014E+01  1.378712769E+03
2.050752927E+01  1.378820435E+03
2.051770840E+01  1.378997314E+03
2.052788753E+01  1.379553833E+03
2.053806666E+01  1.380543335E+03
2.054824579E+01  1.381036011E+03
2.055842492E+01  1.380085938E+03
2.056860405E+01  1.378064819E+03
2.057878318E+01  1.375888428E+03
2.058896231E+01  1.376159668E+03
2.059914144E+01  1.378166870E+03
2.060932057E+01  1.379301880E+03
2.061949970E+01  1.378587280E+03
2.062967883E+01  1.378671265E+03
2.063985796E+01  1.380651245E+03
2.065003710E+01  1.380824707E+03
2.066021623E+01  1.380071655E+03
2.067039536E+01  1.379694092E+03
2.068057449E+01  1.379228271E+03
2.069075362E+01  1.378118408E+03
2.070093275E+01  1.376985840E+03
2.071111188E+01  1.375513550E+03
2.072129101E+01  1.373401001E+03
2.073147014E+01  1.372844238E+03
2.074164927E+01  1.371696045E+03
2.075182840E+01  1.370748413E+03
2.076200753E+01  1.369604858E+03
2.077218666E+01  1.367971680E+03
2.078236579E+01  1.366884766E+03
2.079254492E+01  1.366896362E+03
2.080272405E+01  1.366280029E+03
2.081290319E+01  1.363815674E+03
2.082308232E+01  1.363274658E+03
2.083326145E+01  1.365306763E+03
2.084344058E+01  1.365195801E+03
2.085361971E+01  1.362754150E+03
2.086379884E+01  1.360515747E+03
2.087397797E+01  1.359122314E+03
2.088415710E+01  1.357658691E+03
2.089433623E+01  1.357738403E+03
2.090451536E+01  1.358575806E+03
2.091469449E+01  1.358453491E+03
2.092487362E+01  1.357464233E+03
2.093505275E+01  1.354830444E+03
2.094523188E+01  1.351950317E+03
2.095541101E+01  1.351443604E+03
2.096559014E+01  1.352223145E+03
2.097576927E+01  1.352028809E+03
2.098594841E+01  1.351752808E+03
2.099612754E+01  1.352278687E+03
2.100630667E+01  1.352310791E+03
2.101648580E+01  1.352180664E+03
2.102666493E+01  1.350501831E+03
2.103684406E+01  1.348066650E+03
2.104702319E+01  1.347406494E+03
2.105720232E+01  1.349036255E+03
2.106738145E+01  1.349492188E+03
2.107756058E+01  1.347295532E+03
2.108773971E+01  1.345334351E+03
2.109791884E+01  1.344318115E+03
2.110809797E+01  1.345101196E+03
2.111827710E+01  1.346385620E+03
2.112845623E+01  1.346236450E+03
2.113863536E+01  1.345567261E+03
2.114881450E+01  1.346026611E+03
2.115899363E+01  1.346379395E+03
2.116917276E+01  1.345521851E+03
2.117935189E+01  1.345002686E+03
2.118953102E+01  1.345009521E+03
2.119971015E+01  1.345005249E+03
2.120988928E+01  1.344282471E+03
2.122006841E+01  1.341755981E+03
2.123024754E+01  1.341236572E+03
2.124042667E+01  1.342007080E+03
2.125060580E+01  1.342574951E+03
2.126078493E+01  1.342134399E+03
2.127096406E+01  1.341611084E+03
2.128114319E+01  1.341236816E+03
2.129132232E+01  1.341762451E+03
2.130150145E+01  1.342269165E+03
2.131168059E+01  1.340534180E+03
2.132185972E+01  1.338053955E+03
2.133203885E+01  1.336127197E+03
2.134221798E+01  1.336079956E+03
2.135239711E+01  1.336196289E+03
2.136257624E+01  1.335915527E+03
2.137275537E+01  1.335980957E+03
2.138293450E+01  1.334602417E+03
2.139311363E+01  1.333544800E+03
2.140329276E+01  1.332240356E+03
2.141347189E+01  1.332027710E+03
2.142365102E+01  1.332465698E+03
2.143383015E+01  1.333697876E+03
2.144400928E+01  1.334554810E+03
2.145418841E+01  1.333981201E+03
2.146436754E+01  1.334137207E+03
2.147454668E+01  1.333851196E+03
2.148472581E+01  1.333922485E+03
2.149490494E+01  1.334192383E+03
2.150508407E+01  1.334163330E+03
2.151526320E+01  1.334205566E+03
2.152544233E+01  1.333864014E+03
2.153562146E+01  1.333275024E+03
2.154580059E+01  1.331754639E+03
2.155597972E+01  1.330514771E+03
2.156615885E+01  1.329532837E+03
2.157633798E+01  1.328592041E+03
2.158651711E+01  1.328551392E+03
2.159669624E+01  1.328987183E+03
2.160687537E+01  1.328970947E+03
2.161705450E+01  1.327947266E+03
2.162723363E+01  1.326977295E+03
2.163741277E+01  1.327777710E+03
2.164759190E+01  1.328808716E+03
2.165777103E+01  1.328530762E+03
2.166795016E+01  1.326749512E+03
2.167812929E+01  1.325107422E+03
2.168830842E+01  1.324679321E+03
2.169848755E+01  1.325671997E+03
2.170866668E+01  1.326694580E+03
2.171884581E+01  1.326520630E+03
2.172902494E+01  1.324929565E+03
2.173920407E+01  1.322540771E+03
2.174938320E+01  1.321454224E+03
2.175956233E+01  1.321626465E+03
2.176974146E+01  1.322128296E+03
2.177992059E+01  1.322682007E+03
2.179009972E+01  1.322873779E+03
2.180027886E+01  1.323623047E+03
2.181045799E+01  1.323634155E+03
2.182063712E+01  1.322158813E+03
2.183081625E+01  1.321407349E+03
2.184099538E+01  1.322000732E+03
2.185117451E+01  1.321072266E+03
2.186135364E+01  1.319361084E+03
2.187153277E+01  1.318949219E+03
2.188171190E+01  1.319490845E+03
2.189189103E+01  1.320816650E+03
2.190207016E+01  1.320642212E+03
2.191224929E+01  1.319437988E+03
2.192242842E+01  1.318928833E+03
2.193260755E+01  1.318302979E+03
2.194278668E+01  1.317018433E+03
2.195296581E+01  1.316337646E+03
2.196314495E+01  1.315900391E+03
2.197332408E+01  1.314564575E+03
2.198350321E+01  1.313855225E+03
2.199368234E+01  1.315064575E+03
2.200386147E+01  1.315456787E+03
2.201404060E+01  1.313889648E+03
2.202421973E+01  1.312058472E+03
2.203439886E+01  1.310989014E+03
2.204457799E+01  1.310958862E+03
2.205475712E+01  1.311693726E+03
2.206493625E+01  1.311728027E+03
2.207511538E+01  1.311376465E+03
2.208529451E+01  1.311147705E+03
2.209547364E+01  1.310632324E+03
2.210565277E+01  1.310619751E+03
2.211583190E+01  1.311898193E+03
2.212601103E+01  1.311758545E+03
2.213619017E+01  1.309072021E+03
2.214636930E+01  1.306193848E+03
2.215654843E+01  1.304931763E+03
2.216672756E+01  1.305116943E+03
2.217690669E+01  1.305632202E+03
2.218708582E+01  1.306206177E+03
2.219726495E+01  1.306848633E+03
2.220744408E+01  1.306788818E+03
2.221762321E+01  1.305490112E+03
2.222780234E+01  1.302862915E+03
2.223798147E+01  1.302367310E+03
2.224816060E+01  1.303548340E+03
2.225833973E+01  1.303418823E+03
2.226851886E+01  1.301666626E+03
2.227869799E+01  1.300137451E+03
2.228887712E+01  1.300787964E+03
2.229905626E+01  1.302685303E+03
2.230923539E+01  1.301985229E+03
2.231941452E+01  1.300276855E+03
2.232959365E+01  1.300197021E+03
2.233977278E+01  1.299856079E+03
2.234995191E+01  1.299073975E+03
2.236013104E+01  1.298920166E+03
2.237031017E+01  1.298698853E+03
2.238048930E+01  1.297465210E+03
2.239066843E+01  1.296192749E+03
2.240084756E+01  1.295022949E+03
2.241102669E+01  1.293101807E+03
2.242120582E+01  1.290971924E+03
2.243138495E+01  1.289304565E+03
2.244156408E+01  1.289146362E+03
2.245174321E+01  1.289559937E+03
2.246192235E+01  1.289714844E+03
2.247210148E+01  1.290198853E+03
2.248228061E+01  1.289861938E+03
2.249245974E+01  1.289245728E+03
2.250263887E+01  1.288614380E+03
2.251281800E+01  1.288750854E+03
2.252299713E+01  1.290105957E+03
2.253317626E+01  1.291490723E+03
2.254335539E+01  1.292694458E+03
2.255353452E+01  1.292239136E+03
2.256371365E+01  1.291023804E+03
2.257389278E+01  1.290750488E+03
2.258407191E+01  1.289670166E+03
2.259425104E+01  1.288571899E+03
2.260443017E+01  1.288712524E+03
2.261460930E+01  1.287671143E+03
2.262478844E+01  1.285533936E+03
2.263496757E+01  1.284909912E+03
2.264514670E+01  1.285551514E+03
2.265532583E+01  1.286521362E+03
2.266550496E+01  1.286757202E+03
2.267568409E+01  1.286435547E+03
2.268586322E+01  1.286090454E+03
2.269604235E+01  1.285907471E+03
2.270622148E+01  1.286578369E+03
2.271640061E+01  1.286191650E+03
2.272657974E+01  1.285149658E+03
2.273675887E+01  1.285675049E+03
2.274693800E+01  1.285860840E+03
2.275711713E+01  1.285142212E+03
2.276729626E+01  1.284462769E+03
2.277747539E+01  1.284461670E+03
2.278765453E+01  1.284586060E+03
2.279783366E+01  1.284999634E+03
2.280801279E+01  1.284804688E+03
2.281819192E+01  1.284091187E+03
2.282837105E+01  1.284108032E+03
2.283855018E+01  1.283827148E+03
2.284872931E+01  1.283516968E+03
2.285890844E+01  1.283641968E+03
2.286908757E+01  1.282979858E+03
2.287926670E+01  1.282152466E+03
2.288944583E+01  1.281260986E+03
2.289962496E+01  1.280911499E+03
2.290980409E+01  1.281677490E+03
2.291998322E+01  1.281847290E+03
2.293016235E+01  1.281076172E+03
2.294034148E+01  1.281106812E+03
2.295052062E+01  1.281816040E+03
2.296069975E+01  1.281287231E+03
2.297087888E+01  1.281106323E+03
2.298105801E+01  1.282526245E+03
2.299123714E+01  1.283202515E+03
2.300141627E+01  1.282362305E+03
2.301159540E+01  1.280439331E+03
2.302177453E+01  1.279073486E+03
2.303195366E+01  1.278522827E+03
2.304213279E+01  1.278326050E+03
2.305231192E+01  1.277764648E+03
2.306249105E+01  1.277092651E+03
2.307267018E+01  1.277144531E+03
2.308284931E+01  1.276889648E+03
2.309302844E+01  1.276689209E+03
2.310320757E+01  1.277028076E+03
2.311338670E+01  1.276749146E+03
2.312356584E+01  1.276110352E+03
2.313374497E+01  1.274930420E+03
2.314392410E+01  1.273618530E+03
2.315410323E+01  1.274032593E+03
2.316428236E+01  1.274933105E+03
2.317446149E+01  1.274319946E+03
2.318464062E+01  1.273351562E+03
2.319481975E+01  1.272918945E+03
2.320499888E+01  1.271938110E+03
2.321517801E+01  1.270342529E+03
2.322535714E+01  1.269725586E+03
2.323553627E+01  1.269687622E+03
2.324571540E+01  1.269364014E+03
2.325589453E+01  1.269383057E+03
2.326607366E+01  1.270032959E+03
2.327625279E+01  1.269553345E+03
2.328643193E+01  1.268615967E+03
2.329661106E+01  1.267385254E+03
2.330679019E+01  1.265902466E+03
2.331696932E+01  1.265357666E+03
2.332714845E+01  1.264373169E+03
2.333732758E+01  1.262518555E+03
2.334750671E+01  1.263067627E+03
2.335768584E+01  1.264834473E+03
2.336786497E+01  1.266422241E+03
2.337804410E+01  1.268519409E+03
2.338822323E+01  1.270831421E+03
2.339840236E+01  1.271643311E+03
2.340858149E+01  1.272462524E+03
2.341876062E+01  1.274578369E+03
2.342893975E+01  1.277711670E+03
2.343911888E+01  1.279971680E+03
2.344929802E+01  1.280640381E+03
2.345947715E+01  1.281971069E+03
2.346965628E+01  1.284296631E+03
2.347983541E+01  1.286026489E+03
2.349001454E+01  1.287964111E+03
2.350019367E+01  1.287929199E+03
2.351037280E+01  1.288439453E+03
2.352055193E+01  1.288928833E+03
2.353073106E+01  1.288635254E+03
2.354091019E+01  1.287334717E+03
2.355108932E+01  1.284734375E+03
2.356126845E+01  1.282861816E+03
2.357144758E+01  1.281510376E+03
2.358162671E+01  1.279014404E+03
2.359180584E+01  1.276329834E+03
2.360198497E+01  1.275806274E+03
2.361216411E+01  1.275882690E+03
2.362234324E+01  1.275199463E+03
2.363252237E+01  1.273902588E+03
2.364270150E+01  1.273320679E+03
2.365288063E+01  1.273924683E+03
2.366305976E+01  1.274085571E+03
2.367323889E+01  1.273432861E+03
2.368341802E+01  1.271695190E+03
2.369359715E+01  1.268839722E+03
2.370377628E+01  1.265900879E+03
2.371395541E+01  1.263976929E+03
2.372413454E+01  1.263446411E+03
2.373431367E+01  1.262928833E+03
2.374449280E+01  1.262268066E+03
2.375467193E+01  1.261055420E+03
2.376485106E+01  1.259805054E+03
2.377503020E+01  1.257521973E+03
2.378520933E+01  1.255552612E+03
2.379538846E+01  1.255943115E+03
2.380556759E+01  1.255691040E+03
2.381574672E+01  1.254129883E+03
2.382592585E+01  1.254011597E+03
2.383610498E+01  1.254291016E+03
2.384628411E+01  1.253088745E+03
2.385646324E+01  1.251443604E+03
2.386664237E+01  1.251297974E+03
2.387682150E+01  1.251137451E+03
2.388700063E+01  1.251420044E+03
2.389717976E+01  1.251353271E+03
2.390735889E+01  1.251738770E+03
2.391753802E+01  1.252900146E+03
2.392771715E+01  1.253166504E+03
2.393789629E+01  1.253423950E+03
2.394807542E+01  1.253729736E+03
2.395825455E+01  1.253097412E+03
2.396843368E+01  1.252226440E+03
2.397861281E+01  1.250391357E+03
2.398879194E+01  1.248977173E+03
2.399897107E+01  1.249232666E+03
2.400915020E+01  1.249642822E+03
2.401932933E+01  1.249025269E+03
2.402950846E+01  1.248837402E+03
2.403968759E+01  1.248744019E+03
2.404986672E+01  1.247047363E+03
2.406004585E+01  1.245010254E+03
2.407022498E+01  1.244519775E+03
2.408040411E+01  1.244557983E+03
2.409058324E+01  1.242825928E+03
2.410076237E+01  1.241988281E+03
2.411094151E+01  1.242267212E+03
2.412112064E+01  1.241710815E+03
2.413129977E+01  1.240040771E+03
2.414147890E+01  1.237605103E+03
2.415165803E+01  1.235726318E+03
2.416183716E+01  1.235623657E+03
2.417201629E+01  1.236171509E+03
2.418219542E+01  1.236515137E+03
2.419237455E+01  1.236911743E+03
2.420255368E+01  1.236494141E+03
2.421273281E+01  1.234704712E+03
2.422291194E+01  1.233533081E+03
2.423309107E+01  1.233372681E+03
2.424327020E+01  1.232448120E+03
2.425344933E+01  1.231471069E+03
2.426362846E+01  1.230446411E+03
2.427380760E+01  1.227771118E+03
2.428398673E+01  1.224705078E+03
2.429416586E+01  1.223735596E+03
2.430434499E+01  1.225320312E+03
2.431452412E+01  1.225693115E+03
2.432470325E+01  1.223848633E+03
2.433488238E+01  1.223071167E+03
2.434506151E+01  1.222793335E+03
2.435524064E+01  1.221867554E+03
2.436541977E+01  1.220494995E+03
2.437559890E+01  1.218610962E+03
2.438577803E+01  1.217737915E+03
2.439595716E+01  1.216854492E+03
2.440613629E+01  1.216841064E+03
2.441631542E+01  1.216695312E+03
2.442649455E+01  1.214864868E+03
2.443667369E+01  1.213092163E+03
2.444685282E+01  1.211827026E+03
2.445703195E+01  1.211808960E+03
2.446721108E+01  1.212192017E+03
2.447739021E+01  1.211720825E+03
2.448756934E+01  1.210284058E+03
2.449774847E+01  1.208975586E+03
2.450792760E+01  1.208595703E+03
2.451810673E+01  1.208341064E+03
2.452828586E+01  1.207926392E+03
2.453846499E+01  1.206910522E+03
2.454864412E+01  1.205872192E+03
2.455882325E+01  1.206839722E+03
2.456900238E+01  1.206923340E+03
2.457918151E+01  1.205135864E+03
2.458936064E+01  1.204520264E+03
2.459953978E+01  1.203663086E+03
2.460971891E+01  1.201829346E+03
2.461989804E+01  1.201685059E+03
2.463007717E+01  1.202296875E+03
2.464025630E+01  1.202929199E+03
2.465043543E+01  1.202579468E+03
2.466061456E+01  1.200709839E+03
2.467079369E+01  1.198536743E+03
2.468097282E+01  1.196880249E+03
2.469115195E+01  1.196485840E+03
2.470133108E+01  1.197068481E+03
2.471151021E+01  1.197513428E+03
2.472168934E+01  1.196705322E+03
2.473186847E+01  1.195009888E+03
2.474204760E+01  1.193776733E+03
2.475222673E+01  1.192804077E+03
2.476240587E+01  1.191836914E+03
2.477258500E+01  1.190624878E+03
2.478276413E+01  1.189660400E+03
2.479294326E+01  1.188862915E+03
2.480312239E+01  1.187026489E+03
2.481330152E+01  1.185927612E+03
2.482348065E+01  1.185409912E+03
2.483365978E+01  1.184936401E+03
2.484383891E+01  1.185589233E+03
2.485401804E+01  1.187353271E+03
2.486419717E+01  1.187663818E+03
2.487437630E+01  1.185639771E+03
2.488455543E+01  1.183553345E+03
2.489473456E+01  1.183112671E+03
2.490491369E+01  1.183117920E+03
2.491509282E+01  1.182266235E+03
2.492527196E+01  1.181687744E+03
2.493545109E+01  1.182769775E+03
2.494563022E+01  1.184247192E+03
2.495580935E+01  1.183867554E+03
2.496598848E+01  1.183495972E+03
2.497616761E+01  1.183730957E+03
2.498634674E+01  1.182753540E+03
2.499652587E+01  1.180953857E+03
2.500670500E+01  1.178994629E+03
2.501688413E+01  1.176710327E+03
2.502706326E+01  1.176108521E+03
2.503724239E+01  1.175452148E+03
2.504742152E+01  1.174826660E+03
2.505760065E+01  1.176741943E+03
2.506777978E+01  1.178483765E+03
2.507795891E+01  1.177382935E+03
2.508813804E+01  1.175833130E+03
2.509831718E+01  1.175088745E+03
2.510849631E+01  1.174909180E+03
2.511867544E+01  1.173402100E+03
2.512885457E+01  1.171439453E+03
2.513903370E+01  1.171031982E+03
2.514921283E+01  1.171250366E+03
2.515939196E+01  1.171850952E+03
2.516957109E+01  1.172995605E+03
2.517975022E+01  1.172733887E+03
2.518992935E+01  1.171843994E+03
2.520010848E+01  1.171340332E+03
2.521028761E+01  1.171231689E+03
2.522046674E+01  1.171715332E+03
2.523064587E+01  1.171485840E+03
2.524082500E+01  1.170859375E+03
2.525100413E+01  1.170516724E+03
2.526118327E+01  1.168822388E+03
2.527136240E+01  1.167099731E+03
2.528154153E+01  1.166146973E+03
2.529172066E+01  1.165078491E+03
2.530189979E+01  1.164257812E+03
2.531207892E+01  1.164132690E+03
2.532225805E+01  1.163323120E+03
2.533243718E+01  1.162844604E+03
2.534261631E+01  1.162026489E+03
2.535279544E+01  1.160832764E+03
2.536297457E+01  1.159895386E+03
2.537315370E+01  1.159396973E+03
2.538333283E+01  1.161040527E+03
2.539351196E+01  1.159975830E+03
2.540369109E+01  1.157143188E+03
2.541387022E+01  1.155792236E+03
2.542404936E+01  1.153673096E+03
2.543422849E+01  1.151863159E+03
2.544440762E+01  1.152384766E+03
2.545458675E+01  1.152895630E+03
2.546476588E+01  1.152599487E+03
2.547494501E+01  1.153231567E+03
2.548512414E+01  1.153853271E+03
2.549530327E+01  1.152608276E+03
2.550548240E+01  1.153108643E+03
2.551566153E+01  1.154462158E+03
2.552584066E+01  1.154308105E+03
2.553601979E+01  1.153927856E+03
2.554619892E+01  1.152847412E+03
2.555637805E+01  1.152280151E+03
2.556655718E+01  1.151824951E+03
2.557673631E+01  1.151252563E+03
2.558691545E+01  1.150390137E+03
2.559709458E+01  1.149927246E+03
2.560727371E+01  1.149592773E+03
2.561745284E+01  1.148703491E+03
2.562763197E+01  1.147223145E+03
2.563781110E+01  1.146294067E+03
2.564799023E+01  1.146588745E+03
2.565816936E+01  1.145732788E+03
2.566834849E+01  1.144090454E+03
2.567852762E+01  1.143620117E+03
2.568870675E+01  1.143329346E+03
2.569888588E+01  1.143062134E+03
2.570906501E+01  1.142940308E+03
2.571924414E+01  1.142133179E+03
2.572942327E+01  1.141546387E+03
2.573960240E+01  1.142208008E+03
2.574978154E+01  1.141433594E+03
2.575996067E+01  1.140140381E+03
2.577013980E+01  1.140599365E+03
2.578031893E+01  1.140159302E+03
2.579049806E+01  1.139986694E+03
2.580067719E+01  1.140373413E+03
2.581085632E+01  1.139542358E+03
2.582103545E+01  1.138932007E+03
2.583121458E+01  1.138782471E+03
2.584139371E+01  1.138073608E+03
2.585157284E+01  1.137673584E+03
2.586175197E+01  1.137886719E+03
2.587193110E+01  1.137802979E+03
2.588211023E+01  1.138504517E+03
2.589228936E+01  1.138082397E+03
2.590246849E+01  1.136440063E+03
2.591264763E+01  1.135252930E+03
2.592282676E+01  1.134649902E+03
2.593300589E+01  1.133895996E+03
2.594318502E+01  1.133012207E+03
2.595336415E+01  1.131836304E+03
2.596354328E+01  1.130586914E+03
2.597372241E+01  1.129504150E+03
2.598390154E+01  1.129514038E+03
2.599408067E+01  1.129560669E+03
2.600425980E+01  1.127876221E+03
2.601443893E+01  1.126452881E+03
2.602461806E+01  1.126475952E+03
2.603479719E+01  1.126838623E+03
2.604497632E+01  1.125914551E+03
2.605515545E+01  1.125394165E+03
2.606533458E+01  1.126052124E+03
2.607551372E+01  1.126730835E+03
2.608569285E+01  1.126401855E+03
2.609587198E+01  1.125461426E+03
2.610605111E+01  1.125559204E+03
2.611623024E+01  1.126559082E+03
2.612640937E+01  1.125562134E+03
2.613658850E+01  1.123734863E+03
2.614676763E+01  1.123055176E+03
2.615694676E+01  1.122744141E+03
2.616712589E+01  1.122543945E+03
2.617730502E+01  1.122015015E+03
2.618748415E+01  1.120559082E+03
2.619766328E+01  1.119218140E+03
2.620784241E+01  1.118228394E+03
2.621802154E+01  1.117076172E+03
2.622820067E+01  1.117535034E+03
2.623837980E+01  1.119227051E+03
2.624855894E+01  1.119759277E+03
2.625873807E+01  1.119647583E+03
2.626891720E+01  1.119678711E+03
2.627909633E+01  1.119305054E+03
2.628927546E+01  1.118743652E+03
2.629945459E+01  1.117653809E+03
2.630963372E+01  1.115877197E+03
2.631981285E+01  1.116271851E+03
2.632999198E+01  1.117313965E+03
2.634017111E+01  1.116560791E+03
2.635035024E+01  1.114913086E+03
2.636052937E+01  1.114328857E+03
2.637070850E+01  1.114740112E+03
2.638088763E+01  1.115209351E+03
2.639106676E+01  1.114722778E+03
2.640124589E+01  1.114033813E+03
2.641142503E+01  1.114083374E+03
2.642160416E+01  1.113323608E+03
2.643178329E+01  1.112028320E+03
2.644196242E+01  1.111998047E+03
2.645214155E+01  1.112017822E+03
2.646232068E+01  1.110913452E+03
2.647249981E+01  1.110450562E+03
2.648267894E+01  1.110450195E+03
2.649285807E+01  1.110470581E+03
2.650303720E+01  1.109590454E+03
2.651321633E+01  1.106917847E+03
2.652339546E+01  1.105173096E+03
2.653357459E+01  1.105408325E+03
2.654375372E+01  1.105361694E+03
2.655393285E+01  1.105362305E+03
2.656411198E+01  1.105507202E+03
2.657429112E+01  1.104742554E+03
2.658447025E+01  1.105039185E+03
2.659464938E+01  1.105191650E+03
2.660482851E+01  1.104619141E+03
2.661500764E+01  1.104980591E+03
2.662518677E+01  1.105139160E+03
2.663536590E+01  1.104732300E+03
2.664554503E+01  1.104656372E+03
2.665572416E+01  1.103958862E+03
2.666590329E+01  1.102197754E+03
2.667608242E+01  1.101080933E+03
2.668626155E+01  1.099791748E+03
2.669644068E+01  1.098781494E+03
2.670661981E+01  1.098421997E+03
2.671679894E+01  1.098812988E+03
2.672697807E+01  1.099709839E+03
2.673715721E+01  1.099821655E+03
2.674733634E+01  1.100001221E+03
2.675751547E+01  1.099867065E+03
2.676769460E+01  1.099207153E+03
2.677787373E+01  1.098695679E+03
2.678805286E+01  1.097429810E+03
2.679823199E+01  1.096992310E+03
2.680841112E+01  1.097468872E+03
2.681859025E+01  1.098656860E+03
2.682876938E+01  1.099197510E+03
2.683894851E+01  1.099124146E+03
2.684912764E+01  1.099636597E+03
2.685930677E+01  1.099557129E+03
2.686948590E+01  1.099051025E+03
2.687966503E+01  1.100228027E+03
2.688984416E+01  1.101968750E+03
2.690002330E+01  1.102375000E+03
2.691020243E+01  1.102780273E+03
2.692038156E+01  1.102790161E+03
2.693056069E+01  1.101340698E+03
2.694073982E+01  1.099537720E+03
2.695091895E+01  1.098435181E+03
2.696109808E+01  1.098955688E+03
2.697127721E+01  1.100595215E+03
2.698145634E+01  1.102174072E+03
2.699163547E+01  1.102915039E+03
2.700181460E+01  1.102980713E+03
2.701199373E+01  1.103023193E+03
2.702217286E+01  1.103688110E+03
2.703235199E+01  1.105148315E+03
2.704253112E+01  1.106646973E+03
2.705271025E+01  1.107819702E+03
2.706288939E+01  1.108980103E+03
2.707306852E+01  1.110114380E+03
2.708324765E+01  1.110717285E+03
2.709342678E+01  1.110834717E+03
2.710360591E+01  1.111446655E+03
2.711378504E+01  1.111422974E+03
2.712396417E+01  1.112124268E+03
2.713414330E+01  1.113174805E+03
2.714432243E+01  1.113728638E+03
2.715450156E+01  1.114412109E+03
2.716468069E+01  1.115267700E+03
2.717485982E+01  1.116055420E+03
2.718503895E+01  1.117767456E+03
2.719521808E+01  1.119940186E+03
2.720539721E+01  1.120881226E+03
2.721557634E+01  1.121754883E+03
2.722575547E+01  1.123351440E+03
2.723593461E+01  1.123996582E+03
2.724611374E+01  1.123808472E+03
2.725629287E+01  1.125931763E+03
2.726647200E+01  1.126744263E+03
2.727665113E+01  1.125816162E+03
2.728683026E+01  1.125045044E+03
2.729700939E+01  1.125570557E+03
2.730718852E+01  1.126211182E+03
2.731736765E+01  1.125945068E+03
2.732754678E+01  1.125051758E+03
2.733772591E+01  1.124302002E+03
2.734790504E+01  1.122979248E+03
2.735808417E+01  1.121740967E+03
2.736826330E+01  1.120937134E+03
2.737844243E+01  1.119953003E+03
2.738862156E+01  1.118456299E+03
2.739880070E+01  1.117747803E+03
2.740897983E+01  1.116650513E+03
2.741915896E+01  1.115554810E+03
2.742933809E+01  1.114491455E+03
2.743951722E+01  1.113646240E+03
2.744969635E+01  1.113495728E+03
2.745987548E+01  1.111814209E+03
2.747005461E+01  1.109004883E+03
2.748023374E+01  1.106335449E+03
2.749041287E+01  1.104312988E+03
2.750059200E+01  1.102653076E+03
2.751077113E+01  1.101082886E+03
2.752095026E+01  1.098688477E+03
2.753112939E+01  1.095717651E+03
2.754130852E+01  1.092749756E+03
2.755148765E+01  1.091435181E+03
2.756166679E+01  1.091222046E+03
2.757184592E+01  1.089396973E+03
2.758202505E+01  1.086729492E+03
2.759220418E+01  1.085168823E+03
2.760238331E+01  1.083495972E+03
2.761256244E+01  1.081297729E+03
2.762274157E+01  1.079445190E+03
2.763292070E+01  1.077743164E+03
2.764309983E+01  1.076831177E+03
2.765327896E+01  1.075734375E+03
2.766345809E+01  1.074052979E+03
2.767363722E+01  1.073009155E+03
2.768381635E+01  1.072463135E+03
2.769399548E+01  1.071405151E+03
2.770417461E+01  1.071001587E+03
2.771435374E+01  1.069106934E+03
2.772453288E+01  1.066730225E+03
2.773471201E+01  1.066155029E+03
2.774489114E+01  1.064969727E+03
2.775507027E+01  1.063810669E+03
2.776524940E+01  1.063490845E+03
2.777542853E+01  1.063828857E+03
2.778560766E+01  1.064251953E+03
2.779578679E+01  1.062822754E+03
2.780596592E+01  1.061360352E+03
2.781614505E+01  1.060083984E+03
2.782632418E+01  1.058299561E+03
2.783650331E+01  1.056655396E+03
2.784668244E+01  1.055770874E+03
2.785686157E+01  1.056253296E+03
2.786704070E+01  1.056335449E+03
2.787721983E+01  1.055835205E+03
2.788739897E+01  1.054931519E+03
2.789757810E+01  1.053778076E+03
2.790775723E+01  1.052739502E+03
2.791793636E+01  1.051553101E+03
2.792811549E+01  1.050544434E+03
2.793829462E+01  1.049687866E+03
2.794847375E+01  1.048927856E+03
2.795865288E+01  1.048368164E+03
2.796883201E+01  1.047723145E+03
2.797901114E+01  1.046973877E+03
2.798919027E+01  1.045905884E+03
2.799936940E+01  1.044895386E+03
2.800954853E+01  1.043952881E+03
2.801972766E+01  1.043560791E+03
2.802990679E+01  1.043122925E+03
2.804008592E+01  1.042600098E+03
2.805026506E+01  1.042974731E+03
2.806044419E+01  1.043070068E+03
2.807062332E+01  1.042267700E+03
2.808080245E+01  1.041484131E+03
2.809098158E+01  1.040899780E+03
2.810116071E+01  1.040778687E+03
2.811133984E+01  1.040838501E+03
2.812151897E+01  1.039542114E+03
2.813169810E+01  1.038780396E+03
2.814187723E+01  1.038629761E+03
2.815205636E+01  1.039271851E+03
2.816223549E+01  1.039313599E+03
2.817241462E+01  1.037918335E+03
2.818259375E+01  1.036827148E+03
2.819277288E+01  1.036688110E+03
2.820295201E+01  1.035903809E+03
2.821313114E+01  1.034406250E+03
2.822331028E+01  1.033027588E+03
2.823348941E+01  1.033678101E+03
2.824366854E+01  1.034221313E+03
2.825384767E+01  1.033140503E+03
2.826402680E+01  1.032366821E+03
2.827420593E+01  1.031490356E+03
2.828438506E+01  1.030827881E+03
2.829456419E+01  1.031497803E+03
2.830474332E+01  1.031753052E+03
2.831492245E+01  1.031165527E+03
2.832510158E+01  1.030304565E+03
2.833528071E+01  1.029795898E+03
2.834545984E+01  1.029580566E+03
2.835563897E+01  1.028777344E+03
2.836581810E+01  1.027705933E+03
2.837599723E+01  1.027392944E+03
2.838617637E+01  1.027008179E+03
2.839635550E+01  1.025393921E+03
2.840653463E+01  1.024195190E+03
2.841671376E+01  1.023691345E+03
2.842689289E+01  1.022371277E+03
2.843707202E+01  1.021586548E+03
2.844725115E+01  1.022299377E+03
2.845743028E+01  1.022659241E+03
2.846760941E+01  1.022686096E+03
2.847778854E+01  1.021781311E+03
2.848796767E+01  1.021562378E+03
2.849814680E+01  1.021274231E+03
2.850832593E+01  1.020213928E+03
2.851850506E+01  1.020289368E+03
2.852868419E+01  1.019206299E+03
2.853886332E+01  1.016624146E+03
2.854904246E+01  1.015645752E+03
2.855922159E+01  1.015760864E+03
2.856940072E+01  1.015993958E+03
2.857957985E+01  1.015360413E+03
2.858975898E+01  1.014464661E+03
2.859993811E+01  1.015718628E+03
2.861011724E+01  1.017433594E+03
2.862029637E+01  1.016793335E+03
2.863047550E+01  1.014851074E+03
2.864065463E+01  1.013196228E+03
2.865083376E+01  1.012768921E+03
2.866101289E+01  1.012683105E+03
2.867119202E+01  1.011751160E+03
2.868137115E+01  1.010496826E+03
2.869155028E+01  1.010282654E+03
2.870172941E+01  1.010214294E+03
2.871190855E+01  1.010455933E+03
2.872208768E+01  1.009653564E+03
2.873226681E+01  1.007718445E+03
2.874244594E+01  1.006822998E+03
2.875262507E+01  1.004794312E+03
2.876280420E+01  1.003598267E+03
2.877298333E+01  1.004035400E+03
2.878316246E+01  1.003859558E+03
2.879334159E+01  1.002559204E+03
2.880352072E+01  1.000197693E+03
2.881369985E+01  9.983561401E+02
2.882387898E+01  9.989080811E+02
2.883405811E+01  9.999506226E+02
2.884423724E+01  9.996784668E+02
2.885441637E+01  9.989906616E+02
2.886459550E+01  9.978306885E+02
2.887477464E+01  9.970104980E+02
2.888495377E+01  9.961450195E+02
2.889513290E+01  9.946611328E+02
2.890531203E+01  9.925903931E+02
2.891549116E+01  9.897325439E+02
2.892567029E+01  9.867277832E+02
2.893584942E+01  9.842764893E+02
2.894602855E+01  9.817289429E+02
2.895620768E+01  9.800548096E+02
2.896638681E+01  9.806869507E+02
2.897656594E+01  9.800807495E+02
2.898674507E+01  9.771513672E+02
2.899692420E+01  9.741815186E+02
2.900710333E+01  9.710353394E+02
2.901728246E+01  9.685320435E+02
2.902746159E+01  9.661695557E+02
2.903764073E+01  9.636509399E+02
2.904781986E+01  9.620933838E+02
2.905799899E+01  9.601125488E+02
2.906817812E+01  9.584124146E+02
2.907835725E+01  9.572289429E+02
2.908853638E+01  9.543137207E+02
2.909871551E+01  9.499274902E+02
2.910889464E+01  9.474412231E+02
2.911907377E+01  9.453211670E+02
2.912925290E+01  9.423834229E+02
2.913943203E+01  9.398897095E+02
2.914961116E+01  9.372331543E+02
2.915979029E+01  9.346206055E+02
2.916996942E+01  9.324544678E+02
2.918014855E+01  9.292888184E+02
2.919032768E+01  9.254144897E+02
2.920050681E+01  9.221055298E+02
2.921068595E+01  9.189230347E+02
2.922086508E+01  9.147457275E+02
2.923104421E+01  9.105323486E+02
2.924122334E+01  9.075807495E+02
2.925140247E+01  9.040695190E+02
2.926158160E+01  9.005994263E+02
2.927176073E+01  8.980490112E+02
2.928193986E+01  8.949658203E+02
2.929211899E+01  8.916710815E+02
2.930229812E+01  8.890576782E+02
2.931247725E+01  8.876509399E+02
2.932265638E+01  8.853449097E+02
2.933283551E+01  8.816195068E+02
2.934301464E+01  8.777985840E+02
2.935319377E+01  8.737664185E+02
2.936337290E+01  8.715161133E+02
2.937355204E+01  8.690408936E+02
2.938373117E+01  8.644367065E+02
2.939391030E+01  8.602282104E+02
2.940408943E+01  8.562156982E+02
2.941426856E+01  8.525728760E+02
2.942444769E+01  8.492460938E+02
2.943462682E+01  8.468121948E+02
2.944480595E+01  8.440543823E+02
2.945498508E+01  8.407732544E+02
2.946516421E+01  8.384374390E+02
2.947534334E+01  8.355178833E+02
2.948552247E+01  8.318598022E+02
2.949570160E+01  8.286968994E+02
2.950588073E+01  8.257094116E+02
2.951605986E+01  8.227169800E+02
2.952623899E+01  8.187265625E+02
2.953641813E+01  8.148187256E+02
2.954659726E+01  8.119264526E+02
2.955677639E+01  8.083386841E+02
2.956695552E+01  8.047957764E+02
2.957713465E+01  8.016841431E+02
2.958731378E+01  7.980849609E+02
2.959749291E+01  7.952464600E+02
2.960767204E+01  7.921102295E+02
2.961785117E+01  7.875069580E+02
2.962803030E+01  7.832220459E+02
2.963820943E+01  7.816220093E+02
2.964838856E+01  7.800932007E+02
2.965856769E+01  7.761433716E+02
2.966874682E+01  7.722504883E+02
2.967892595E+01  7.695034790E+02
2.968910508E+01  7.670435791E+02
2.969928422E+01  7.647982178E+02
2.970946335E+01  7.627441406E+02
2.971964248E+01  7.601591797E+02
2.972982161E+01  7.580247192E+02
2.974000074E+01  7.548914795E+02
2.975017987E+01  7.514360962E+02
2.976035900E+01  7.497973022E+02
2.977053813E+01  7.490229492E+02
2.978071726E+01  7.476035156E+02
2.979089639E+01  7.458838501E+02
2.980107552E+01  7.442111816E+02
2.981125465E+01  7.411954346E+02
2.982143378E+01  7.386435547E+02
2.983161291E+01  7.363181152E+02
2.984179204E+01  7.338446045E+02
2.985197117E+01  7.315576172E+02
2.986215031E+01  7.292197266E+02
2.987232944E+01  7.262355957E+02
2.988250857E+01  7.234930420E+02
2.989268770E+01  7.220162964E+02
2.990286683E+01  7.202821655E+02
2.991304596E+01  7.170861816E+02
2.992322509E+01  7.139473877E+02
2.993340422E+01  7.125422363E+02
2.994358335E+01  7.115593262E+02
2.995376248E+01  7.094061890E+02
2.996394161E+01  7.078181152E+02
2.997412074E+01  7.060642090E+02
2.998429987E+01  7.034522095E+02
2.999447900E+01  7.017149658E+02
3.000465813E+01  7.012355347E+02
3.001483726E+01  6.994328003E+02
3.002501640E+01  6.966560059E+02
3.003519553E+01  6.943721313E+02
3.004537466E+01  6.923193359E+02
3.005555379E+01  6.906644897E+02
3.006573292E+01  6.900090332E+02
3.007591205E+01  6.895045166E+02
3.008609118E+01  6.880174561E+02
3.009627031E+01  6.865142822E+02
3.010644944E+01  6.865769653E+02
3.011662857E+01  6.869201050E+02
3.012680770E+01  6.877361450E+02
3.013698683E+01  6.871088257E+02
3.014716596E+01  6.855510864E+02
3.015734509E+01  6.851596069E+02
3.016752422E+01  6.850734863E+02
3.017770335E+01  6.840374756E+02
3.018788249E+01  6.830584106E+02
3.019806162E+01  6.819871826E+02
3.020824075E+01  6.811967773E+02
3.021841988E+01  6.808092651E+02
3.022859901E+01  6.816326904E+02
3.023877814E+01  6.817683105E+02
3.024895727E+01  6.812344360E+02
3.025913640E+01  6.822341309E+02
3.026931553E+01  6.826834717E+02
3.027949466E+01  6.813049927E+02
3.028967379E+01  6.804263916E+02
3.029985292E+01  6.800953369E+02
3.031003205E+01  6.802153931E+02
3.032021118E+01  6.796814575E+02
3.033039031E+01  6.782984619E+02
3.034056944E+01  6.771473389E+02
3.035074857E+01  6.767631226E+02
3.036092771E+01  6.765223389E+02
3.037110684E+01  6.761680908E+02
3.038128597E+01  6.765274658E+02
3.039146510E+01  6.766393433E+02
3.040164423E+01  6.756724854E+02
3.041182336E+01  6.729826050E+02
3.042200249E+01  6.718558960E+02
3.043218162E+01  6.728616943E+02
3.044236075E+01  6.736441650E+02
3.045253988E+01  6.736242676E+02
3.046271901E+01  6.740350952E+02
3.047289814E+01  6.726195679E+02
3.048307727E+01  6.705603638E+02
3.049325640E+01  6.702431030E+02
3.050343553E+01  6.707387085E+02
3.051361466E+01  6.699110718E+02
3.052379380E+01  6.690770264E+02
3.053397293E+01  6.689515381E+02
3.054415206E+01  6.680007324E+02
3.055433119E+01  6.673425903E+02
3.056451032E+01  6.668416748E+02
3.057468945E+01  6.661979370E+02
3.058486858E+01  6.657053833E+02
3.059504771E+01  6.651358032E+02
3.060522684E+01  6.643138428E+02
3.061540597E+01  6.634691772E+02
3.062558510E+01  6.646981201E+02
3.063576423E+01  6.654686890E+02
3.064594336E+01  6.651243286E+02
3.065612249E+01  6.648441772E+02
3.066630162E+01  6.639557495E+02
3.067648075E+01  6.629541626E+02
3.068665989E+01  6.624676514E+02
3.069683902E+01  6.617276001E+02
3.070701815E+01  6.608188477E+02
3.071719728E+01  6.606508789E+02
3.072737641E+01  6.607592163E+02
3.073755554E+01  6.597806396E+02
3.074773467E+01  6.594305420E+02
3.075791380E+01  6.596208496E+02
3.076809293E+01  6.590588379E+02
3.077827206E+01  6.577444458E+02
3.078845119E+01  6.555963745E+02
3.079863032E+01  6.550998535E+02
3.080880945E+01  6.555240479E+02
3.081898858E+01  6.553442383E+02
3.082916771E+01  6.546669312E+02
3.083934684E+01  6.540441895E+02
3.084952598E+01  6.562623291E+02
3.085970511E+01  6.631992798E+02
3.086988424E+01  6.682035522E+02
3.088006337E+01  6.704869995E+02
3.089024250E+01  6.717661743E+02
3.090042163E+01  6.732854614E+02
3.091060076E+01  6.745159912E+02
3.092077989E+01  6.763004761E+02
3.093095902E+01  6.769518433E+02
3.094113815E+01  6.773397827E+02
3.095131728E+01  6.778805542E+02
3.096149641E+01  6.773383179E+02
3.097167554E+01  6.762886353E+02
3.098185467E+01  6.766593018E+02
3.099203380E+01  6.773491821E+02
3.100221293E+01  6.773975220E+02
3.101239207E+01  6.781312256E+02
3.102257120E+01  6.795773315E+02
3.103275033E+01  6.791419067E+02
3.104292946E+01  6.766972046E+02
3.105310859E+01  6.755390015E+02
3.106328772E+01  6.761812744E+02
3.107346685E+01  6.778192749E+02
3.108364598E+01  6.782542114E+02
3.109382511E+01  6.779365234E+02
3.110400424E+01  6.788439941E+02
3.111418337E+01  6.794436035E+02
3.112436250E+01  6.781364746E+02
3.113454163E+01  6.759012451E+02
3.114472076E+01  6.750772095E+02
3.115489989E+01  6.757748413E+02
3.116507902E+01  6.767324219E+02
3.117525816E+01  6.774754639E+02
3.118543729E+01  6.776171875E+02
3.119561642E+01  6.769177856E+02
3.120579555E+01  6.762634888E+02
3.121597468E+01  6.754525757E+02
3.122615381E+01  6.747685547E+02
3.123633294E+01  6.758537598E+02
3.124651207E+01  6.764395752E+02
3.125669120E+01  6.756352539E+02
3.126687033E+01  6.762096558E+02
3.127704946E+01  6.767286377E+02
3.128722859E+01  6.760218506E+02
3.129740772E+01  6.749832764E+02
3.130758685E+01  6.727166748E+02
3.131776598E+01  6.722519531E+02
3.132794511E+01  6.716071167E+02
3.133812424E+01  6.700812378E+02
3.134830338E+01  6.698304443E+02
3.135848251E+01  6.704329224E+02
3.136866164E+01  6.709111938E+02
3.137884077E+01  6.701708984E+02
3.138901990E+01  6.692868042E+02
3.139919903E+01  6.686887817E+02
3.140937816E+01  6.676259766E+02
3.141955729E+01  6.667368164E+02
3.142973642E+01  6.677631836E+02
3.143991555E+01  6.692957153E+02
3.145009468E+01  6.695493774E+02
3.146027381E+01  6.700432739E+02
3.147045294E+01  6.699555054E+02
3.148063207E+01  6.693458862E+02
3.149081120E+01  6.676041260E+02
3.150099033E+01  6.662182007E+02
3.151116947E+01  6.662025757E+02
3.152134860E+01  6.655416870E+02
3.153152773E+01  6.659019165E+02
3.154170686E+01  6.658328857E+02
3.155188599E+01  6.636308594E+02
3.156206512E+01  6.624454346E+02
3.157224425E+01  6.621167603E+02
3.158242338E+01  6.608897705E+02
3.159260251E+01  6.602270508E+02
3.160278164E+01  6.598464355E+02
3.161296077E+01  6.598483276E+02
3.162313990E+01  6.601040039E+02
3.163331903E+01  6.599146118E+02
3.164349816E+01  6.604049683E+02
3.165367729E+01  6.606976318E+02
3.166385642E+01  6.595783081E+02
3.167403556E+01  6.586509399E+02
3.168421469E+01  6.578474121E+02
3.169439382E+01  6.580924072E+02
3.170457295E+01  6.572221680E+02
3.171475208E+01  6.561266479E+02
3.172493121E+01  6.563544312E+02
3.173511034E+01  6.563092041E+02
3.174528947E+01  6.561222534E+02
3.175546860E+01  6.560527954E+02
3.176564773E+01  6.549596558E+02
3.177582686E+01  6.532917480E+02
3.178600599E+01  6.528052979E+02
3.179618512E+01  6.539267578E+02
3.180636425E+01  6.544393311E+02
3.181654338E+01  6.530028687E+02
3.182672251E+01  6.522045288E+02
3.183690165E+01  6.514083252E+02
3.184708078E+01  6.496619263E+02
3.185725991E+01  6.485239258E+02
3.186743904E+01  6.470932617E+02
3.187761817E+01  6.458886719E+02
3.188779730E+01  6.469716187E+02
3.189797643E+01  6.487960815E+02
3.190815556E+01  6.502527466E+02
3.191833469E+01  6.495111694E+02
3.192851382E+01  6.480789185E+02
3.193869295E+01  6.474793091E+02
3.194887208E+01  6.451879883E+02
3.195905121E+01  6.430267944E+02
3.196923034E+01  6.423721924E+02
3.197940947E+01  6.416264038E+02
3.198958860E+01  6.401517334E+02
3.199976774E+01  6.388967285E+02
3.200994687E+01  6.381461792E+02
3.202012600E+01  6.377957153E+02
3.203030513E+01  6.375267944E+02
3.204048426E+01  6.356543579E+02
3.205066339E+01  6.347664795E+02
3.206084252E+01  6.357352905E+02
3.207102165E+01  6.359898682E+02
3.208120078E+01  6.345917358E+02
3.209137991E+01  6.321790771E+02
3.210155904E+01  6.297791748E+02
3.211173817E+01  6.280551147E+02
3.212191730E+01  6.275390625E+02
3.213209643E+01  6.261210327E+02
3.214227556E+01  6.240244751E+02
3.215245469E+01  6.231001587E+02
3.216263383E+01  6.223547363E+02
3.217281296E+01  6.202704468E+02
3.218299209E+01  6.189741821E+02
3.219317122E+01  6.188408813E+02
3.220335035E+01  6.189390259E+02
3.221352948E+01  6.190064697E+02
3.222370861E+01  6.184206543E+02
3.223388774E+01  6.214282227E+02
3.224406687E+01  6.346176758E+02
3.225424600E+01  6.488535767E+02
3.226442513E+01  6.546323242E+02
3.227460426E+01  6.570554199E+02
3.228478339E+01  6.578807373E+02
3.229496252E+01  6.587712402E+02
3.230514165E+01  6.599521484E+02
3.231532078E+01  6.601178589E+02
3.232549991E+01  6.606402588E+02
3.233567905E+01  6.599295044E+02
3.234585818E+01  6.604105835E+02
3.235603731E+01  6.605535889E+02
3.236621644E+01  6.602793579E+02
3.237639557E+01  6.602729492E+02
3.238657470E+01  6.599277344E+02
3.239675383E+01  6.597355347E+02
3.240693296E+01  6.578660889E+02
3.241711209E+01  6.538383789E+02
3.242729122E+01  6.516386108E+02
3.243747035E+01  6.513176880E+02
3.244764948E+01  6.511817627E+02
3.245782861E+01  6.499642334E+02
3.246800774E+01  6.476137085E+02
3.247818687E+01  6.456498413E+02
3.248836600E+01  6.460400391E+02
3.249854514E+01  6.460023804E+02
3.250872427E+01  6.433667603E+02
3.251890340E+01  6.402540894E+02
3.252908253E+01  6.382321167E+02
3.253926166E+01  6.376452637E+02
3.254944079E+01  6.365402832E+02
3.255961992E+01  6.337299194E+02
3.256979905E+01  6.308065186E+02
3.257997818E+01  6.276893921E+02
3.259015731E+01  6.260874634E+02
3.260033644E+01  6.262216797E+02
3.261051557E+01  6.226921387E+02
3.262069470E+01  6.189329224E+02
3.263087383E+01  6.187688599E+02
3.264105296E+01  6.168186035E+02
3.265123209E+01  6.129477539E+02
3.266141123E+01  6.085090332E+02
3.267159036E+01  6.058336792E+02
3.268176949E+01  6.063989868E+02
3.269194862E+01  6.061145020E+02
3.270212775E+01  6.017545166E+02
3.271230688E+01  5.967196655E+02
3.272248601E+01  5.958477783E+02
3.273266514E+01  5.973140259E+02
3.274284427E+01  5.952094727E+02
3.275302340E+01  5.901613159E+02
3.276320253E+01  5.852174072E+02
3.277338166E+01  5.809403076E+02
3.278356079E+01  5.775186768E+02
3.279373992E+01  5.757505493E+02
3.280391905E+01  5.747335205E+02
3.281409818E+01  5.741302490E+02
3.282427732E+01  5.741365967E+02
3.283445645E+01  5.720842285E+02
3.284463558E+01  5.672957764E+02
3.285481471E+01  5.636320190E+02
3.286499384E+01  5.610251465E+02
3.287517297E+01  5.574819336E+02
3.288535210E+01  5.529182739E+02
3.289553123E+01  5.470871582E+02
3.290571036E+01  5.408320312E+02
3.291588949E+01  5.391278687E+02
3.292606862E+01  5.406066895E+02
3.293624775E+01  5.365886230E+02
3.294642688E+01  5.303923340E+02
3.295660601E+01  5.277144165E+02
3.296678514E+01  5.231932373E+02
3.297696427E+01  5.195928955E+02
3.298714341E+01  5.194855957E+02
3.299732254E+01  5.171118774E+02
3.300750167E+01  5.102561340E+02
3.301768080E+01  5.008162537E+02
3.302785993E+01  4.963800964E+02
3.303803906E+01  4.969178772E+02
3.304821819E+01  4.950182495E+02
3.305839732E+01  4.919727173E+02
3.306857645E+01  4.890680237E+02
3.307875558E+01  4.841364441E+02
3.308893471E+01  4.809036560E+02
3.309911384E+01  4.781773071E+02
3.310929297E+01  4.736141968E+02
3.311947210E+01  4.697409668E+02
3.312965123E+01  4.638893738E+02
3.313983036E+01  4.618088989E+02
3.315000950E+01  4.623893127E+02
3.316018863E+01  4.587424622E+02
3.317036776E+01  4.515605774E+02
3.318054689E+01  4.482273254E+02
3.319072602E+01  4.498511353E+02
3.320090515E+01  4.462416992E+02
3.321108428E+01  4.353901672E+02
3.322126341E+01  4.281309814E+02
3.323144254E+01  4.238543396E+02
3.324162167E+01  4.235033569E+02
3.325180080E+01  4.266269531E+02
3.326197993E+01  4.269620361E+02
3.327215906E+01  4.261983032E+02
3.328233819E+01  4.231901550E+02
3.329251732E+01  4.250420227E+02
3.330269645E+01  4.276007690E+02
3.331287558E+01  4.280602417E+02
3.332305472E+01  4.259304504E+02
3.333323385E+01  4.205799255E+02
3.334341298E+01  4.213915100E+02
3.335359211E+01  4.248867493E+02
3.336377124E+01  4.296225281E+02
3.337395037E+01  4.282533875E+02
3.338412950E+01  4.245701904E+02
3.339430863E+01  4.235726929E+02
3.340448776E+01  4.259035034E+02
3.341466689E+01  4.284980469E+02
3.342484602E+01  4.272029419E+02
3.343502515E+01  4.269868164E+02
3.344520428E+01  4.274283142E+02
3.345538341E+01  4.283731384E+02
3.346556254E+01  4.290873718E+02
3.347574167E+01  4.300609741E+02
3.348592081E+01  4.261699524E+02
3.349609994E+01  4.252754211E+02
3.350627907E+01  4.298828735E+02
3.351645820E+01  4.363689270E+02
3.352663733E+01  4.433972168E+02
3.353681646E+01  4.435735474E+02
3.354699559E+01  4.365101929E+02
3.355717472E+01  4.320244446E+02
3.356735385E+01  4.351245728E+02
3.357753298E+01  4.343977661E+02
3.358771211E+01  4.380305786E+02
3.359789124E+01  4.412004395E+02
3.360807037E+01  4.435831909E+02
3.361824950E+01  4.500172424E+02
3.362842863E+01  4.475481262E+02
