# == pyFAI calibration ==
# SplineFile: None
# PixelSize: 7.900e-05, 7.900e-05 m
# PONI: 1.411e-01, 1.028e-01 m
# Distance Sample to Detector: 0.252389920345 m
# Rotations: 0.001947 0.002954 0.000003 rad
# 
# == Fit2d calibration ==
# Distance Sample-beamCenter: 252.392 mm
# Center: x=1295.273, y=1795.185 pix
# Tilt: 0.203 deg  TiltPlanRot: 123.397 deg
# 
# Wavelength: 8.603e-11
# Polarization factor: 0.99
# Normalization factor: None
#
# 2th_deg	 I
3.335335913E+00  4.385843262E+03
3.345515043E+00  4.362395508E+03
3.355694174E+00  4.359846680E+03
3.365873304E+00  4.344663574E+03
3.376052435E+00  4.344848145E+03
3.386231566E+00  4.330319336E+03
3.396410696E+00  4.325535645E+03
3.406589827E+00  4.359625488E+03
3.416768958E+00  4.397909180E+03
3.426948088E+00  4.445012207E+03
3.437127219E+00  4.460371582E+03
3.447306349E+00  4.455003906E+03
3.457485480E+00  4.453251465E+03
3.467664611E+00  4.455522949E+03
3.477843741E+00  4.459802734E+03
3.488022872E+00  4.483616211E+03
3.498202002E+00  4.501782715E+03
3.508381133E+00  4.497351562E+03
3.518560264E+00  4.499442871E+03
3.528739394E+00  4.515587891E+03
3.538918525E+00  4.542288574E+03
3.549097656E+00  4.555943359E+03
3.559276786E+00  4.553387207E+03
3.569455917E+00  4.553103516E+03
3.579635047E+00  4.563093262E+03
3.589814178E+00  4.582106445E+03
3.599993309E+00  4.593142090E+03
3.610172439E+00  4.599267578E+03
3.620351570E+00  4.602180664E+03
3.630530701E+00  4.628237305E+03
3.640709831E+00  4.639821289E+03
3.650888962E+00  4.629027832E+03
3.661068092E+00  4.608141602E+03
3.671247223E+00  4.606769531E+03
3.681426354E+00  4.629037109E+03
3.691605484E+00  4.640602539E+03
3.701784615E+00  4.640197266E+03
3.711963745E+00  4.637225098E+03
3.722142876E+00  4.646597656E+03
3.732322007E+00  4.659201660E+03
3.742501137E+00  4.669697754E+03
3.752680268E+00  4.670180176E+03
3.762859399E+00  4.682761719E+03
3.773038529E+00  4.691090332E+03
3.783217660E+00  4.704479004E+03
3.793396790E+00  4.705975586E+03
3.803575921E+00  4.708233398E+03
3.813755052E+00  4.713943359E+03
3.823934182E+00  4.717434570E+03
3.834113313E+00  4.711974609E+03
3.844292444E+00  4.702460449E+03
3.854471574E+00  4.697072266E+03
3.864650705E+00  4.692879883E+03
3.874829835E+00  4.698808594E+03
3.885008966E+00  4.702274414E+03
3.895188097E+00  4.712372559E+03
3.905367227E+00  4.728566895E+03
3.915546358E+00  4.728929199E+03
3.925725488E+00  4.716574219E+03
3.935904619E+00  4.705305664E+03
3.946083750E+00  4.712812988E+03
3.956262880E+00  4.724536133E+03
3.966442011E+00  4.734577637E+03
3.976621142E+00  4.734858398E+03
3.986800272E+00  4.728115234E+03
3.996979403E+00  4.730687500E+03
4.007158533E+00  4.733186523E+03
4.017337664E+00  4.737831543E+03
4.027516795E+00  4.744698242E+03
4.037695925E+00  4.739395508E+03
4.047875056E+00  4.736118652E+03
4.058054187E+00  4.732161133E+03
4.068233317E+00  4.728649414E+03
4.078412448E+00  4.728533203E+03
4.088591578E+00  4.733813477E+03
4.098770709E+00  4.735607910E+03
4.108949840E+00  4.732031738E+03
4.119128970E+00  4.729842773E+03
4.129308101E+00  4.737099121E+03
4.139487231E+00  4.743394531E+03
4.149666362E+00  4.750905762E+03
4.159845493E+00  4.761027344E+03
4.170024623E+00  4.754231445E+03
4.180203754E+00  4.743000488E+03
4.190382885E+00  4.724044922E+03
4.200562015E+00  4.704948242E+03
4.210741146E+00  4.688726074E+03
4.220920276E+00  4.694201172E+03
4.231099407E+00  4.702490234E+03
4.241278538E+00  4.713742676E+03
4.251457668E+00  4.709971191E+03
4.261636799E+00  4.701075195E+03
4.271815930E+00  4.704361816E+03
4.281995060E+00  4.711604980E+03
4.292174191E+00  4.723495117E+03
4.302353321E+00  4.728723633E+03
4.312532452E+00  4.723036133E+03
4.322711583E+00  4.721227051E+03
4.332890713E+00  4.730176270E+03
4.343069844E+00  4.743712402E+03
4.353248974E+00  4.754743164E+03
4.363428105E+00  4.753750977E+03
4.373607236E+00  4.740392090E+03
4.383786366E+00  4.725712402E+03
4.393965497E+00  4.716842285E+03
4.404144628E+00  4.712423828E+03
4.414323758E+00  4.713833496E+03
4.424502889E+00  4.715434570E+03
4.434682019E+00  4.722954102E+03
4.444861150E+00  4.725162109E+03
4.455040281E+00  4.722805176E+03
4.465219411E+00  4.715036133E+03
4.475398542E+00  4.716909668E+03
4.485577673E+00  4.725389648E+03
4.495756803E+00  4.728213867E+03
4.505935934E+00  4.721946777E+03
4.516115064E+00  4.720144043E+03
4.526294195E+00  4.722847656E+03
4.536473326E+00  4.723524414E+03
4.546652456E+00  4.727561035E+03
4.556831587E+00  4.727444336E+03
4.567010717E+00  4.723760254E+03
4.577189848E+00  4.722323730E+03
4.587368979E+00  4.719794434E+03
4.597548109E+00  4.719258789E+03
4.607727240E+00  4.711574219E+03
4.617906371E+00  4.710835938E+03
4.628085501E+00  4.712722656E+03
4.638264632E+00  4.705654785E+03
4.648443762E+00  4.697289062E+03
4.658622893E+00  4.699900879E+03
4.668802024E+00  4.702827148E+03
4.678981154E+00  4.696111328E+03
4.689160285E+00  4.686391113E+03
4.699339415E+00  4.682678711E+03
4.709518546E+00  4.687621094E+03
4.719697677E+00  4.695531738E+03
4.729876807E+00  4.699552246E+03
4.740055938E+00  4.700584473E+03
4.750235069E+00  4.694070312E+03
4.760414199E+00  4.682879883E+03
4.770593330E+00  4.673927246E+03
4.780772460E+00  4.672200684E+03
4.790951591E+00  4.681817383E+03
4.801130722E+00  4.692725098E+03
4.811309852E+00  4.690025391E+03
4.821488983E+00  4.690083984E+03
4.831668114E+00  4.688063477E+03
4.841847244E+00  4.684167480E+03
4.852026375E+00  4.678874512E+03
4.862205505E+00  4.671718750E+03
4.872384636E+00  4.671050293E+03
4.882563767E+00  4.671373047E+03
4.892742897E+00  4.678100586E+03
4.902922028E+00  4.683951172E+03
4.913101158E+00  4.682480469E+03
4.923280289E+00  4.678716309E+03
4.933459420E+00  4.672032227E+03
4.943638550E+00  4.664014160E+03
4.953817681E+00  4.661711914E+03
4.963996812E+00  4.667804688E+03
4.974175942E+00  4.678867676E+03
4.984355073E+00  4.680374023E+03
4.994534203E+00  4.677232910E+03
5.004713334E+00  4.671428223E+03
5.014892465E+00  4.672339844E+03
5.025071595E+00  4.679804688E+03
5.035250726E+00  4.689099121E+03
5.045429857E+00  4.693005859E+03
5.055608987E+00  4.690011719E+03
5.065788118E+00  4.689742188E+03
5.075967248E+00  4.685617188E+03
5.086146379E+00  4.682368652E+03
5.096325510E+00  4.673604492E+03
5.106504640E+00  4.669089355E+03
5.116683771E+00  4.674871094E+03
5.126862901E+00  4.683016113E+03
5.137042032E+00  4.691402344E+03
5.147221163E+00  4.690645020E+03
5.157400293E+00  4.687670410E+03
5.167579424E+00  4.689758301E+03
5.177758555E+00  4.690037598E+03
5.187937685E+00  4.691395020E+03
5.198116816E+00  4.683485840E+03
5.208295946E+00  4.677012207E+03
5.218475077E+00  4.672617188E+03
5.228654208E+00  4.667659180E+03
5.238833338E+00  4.668550781E+03
5.249012469E+00  4.674185059E+03
5.259191600E+00  4.680084961E+03
5.269370730E+00  4.683302734E+03
5.279549861E+00  4.681853516E+03
5.289728991E+00  4.676385254E+03
5.299908122E+00  4.674400879E+03
5.310087253E+00  4.677570801E+03
5.320266383E+00  4.680419434E+03
5.330445514E+00  4.679360352E+03
5.340624644E+00  4.665565430E+03
5.350803775E+00  4.653646484E+03
5.360982906E+00  4.647808594E+03
5.371162036E+00  4.645354004E+03
5.381341167E+00  4.643475098E+03
5.391520298E+00  4.635170410E+03
5.401699428E+00  4.626912598E+03
5.411878559E+00  4.621056152E+03
5.422057689E+00  4.616792969E+03
5.432236820E+00  4.608083984E+03
5.442415951E+00  4.605633301E+03
5.452595081E+00  4.600839355E+03
5.462774212E+00  4.597714844E+03
5.472953343E+00  4.591240234E+03
5.483132473E+00  4.585345703E+03
5.493311604E+00  4.579535156E+03
5.503490734E+00  4.574708984E+03
5.513669865E+00  4.572386230E+03
5.523848996E+00  4.566751953E+03
5.534028126E+00  4.559635742E+03
5.544207257E+00  4.553221680E+03
5.554386387E+00  4.552861816E+03
5.564565518E+00  4.554070312E+03
5.574744649E+00  4.553187988E+03
5.584923779E+00  4.548522461E+03
5.595102910E+00  4.539302734E+03
5.605282041E+00  4.532526367E+03
5.615461171E+00  4.526957031E+03
5.625640302E+00  4.531050781E+03
5.635819432E+00  4.537962402E+03
5.645998563E+00  4.536651367E+03
5.656177694E+00  4.531659668E+03
5.666356824E+00  4.524398438E+03
5.676535955E+00  4.519871582E+03
5.686715086E+00  4.516776367E+03
5.696894216E+00  4.514839844E+03
5.707073347E+00  4.512095215E+03
5.717252477E+00  4.509198242E+03
5.727431608E+00  4.501685059E+03
5.737610739E+00  4.499785645E+03
5.747789869E+00  4.499370117E+03
5.757969000E+00  4.493787109E+03
5.768148130E+00  4.486332520E+03
5.778327261E+00  4.481095703E+03
5.788506392E+00  4.478462891E+03
5.798685522E+00  4.477371582E+03
5.808864653E+00  4.477107422E+03
5.819043784E+00  4.470514160E+03
5.829222914E+00  4.466992676E+03
5.839402045E+00  4.464795410E+03
5.849581175E+00  4.461040039E+03
5.859760306E+00  4.458503906E+03
5.869939437E+00  4.462946289E+03
5.880118567E+00  4.463493164E+03
5.890297698E+00  4.460151367E+03
5.900476829E+00  4.456953613E+03
5.910655959E+00  4.454061035E+03
5.920835090E+00  4.453950684E+03
5.931014220E+00  4.445466309E+03
5.941193351E+00  4.435685547E+03
5.951372482E+00  4.428749512E+03
5.961551612E+00  4.424035645E+03
5.971730743E+00  4.422399902E+03
5.981909873E+00  4.424614746E+03
5.992089004E+00  4.428249512E+03
6.002268135E+00  4.424399902E+03
6.012447265E+00  4.416158203E+03
6.022626396E+00  4.412993164E+03
6.032805527E+00  4.416462891E+03
6.042984657E+00  4.417004395E+03
6.053163788E+00  4.414041504E+03
6.063342918E+00  4.411173828E+03
6.073522049E+00  4.408000977E+03
6.083701180E+00  4.405217773E+03
6.093880310E+00  4.405016602E+03
6.104059441E+00  4.407249023E+03
6.114238572E+00  4.406221191E+03
6.124417702E+00  4.401128906E+03
6.134596833E+00  4.395933594E+03
6.144775963E+00  4.391167480E+03
6.154955094E+00  4.383995117E+03
6.165134225E+00  4.376874512E+03
6.175313355E+00  4.370269043E+03
6.185492486E+00  4.365768066E+03
6.195671616E+00  4.364370117E+03
6.205850747E+00  4.364684082E+03
6.216029878E+00  4.361440430E+03
6.226209008E+00  4.359249023E+03
6.236388139E+00  4.363844727E+03
6.246567270E+00  4.364231934E+03
6.256746400E+00  4.358155762E+03
6.266925531E+00  4.353534180E+03
6.277104661E+00  4.350092773E+03
6.287283792E+00  4.346860352E+03
6.297462923E+00  4.343959473E+03
6.307642053E+00  4.342257324E+03
6.317821184E+00  4.340722656E+03
6.328000315E+00  4.338375977E+03
6.338179445E+00  4.336917969E+03
6.348358576E+00  4.336064941E+03
6.358537706E+00  4.330623047E+03
6.368716837E+00  4.324244141E+03
6.378895968E+00  4.318261230E+03
6.389075098E+00  4.312724121E+03
6.399254229E+00  4.308882812E+03
6.409433359E+00  4.302467773E+03
6.419612490E+00  4.296263672E+03
6.429791621E+00  4.291229980E+03
6.439970751E+00  4.289592285E+03
6.450149882E+00  4.293447266E+03
6.460329013E+00  4.293477051E+03
6.470508143E+00  4.287399902E+03
6.480687274E+00  4.281286621E+03
6.490866404E+00  4.272330078E+03
6.501045535E+00  4.265588379E+03
6.511224666E+00  4.262789062E+03
6.521403796E+00  4.265417480E+03
6.531582927E+00  4.265654297E+03
6.541762058E+00  4.261829590E+03
6.551941188E+00  4.256609863E+03
6.562120319E+00  4.247297363E+03
6.572299449E+00  4.241898926E+03
6.582478580E+00  4.235798828E+03
6.592657711E+00  4.232229004E+03
6.602836841E+00  4.231822266E+03
6.613015972E+00  4.230583496E+03
6.623195102E+00  4.226248047E+03
6.633374233E+00  4.223816406E+03
6.643553364E+00  4.220163086E+03
6.653732494E+00  4.219880371E+03
6.663911625E+00  4.216981934E+03
6.674090756E+00  4.211605957E+03
6.684269886E+00  4.208720215E+03
6.694449017E+00  4.203895020E+03
6.704628147E+00  4.197499512E+03
6.714807278E+00  4.197292969E+03
6.724986409E+00  4.200948242E+03
6.735165539E+00  4.201423828E+03
6.745344670E+00  4.198309570E+03
6.755523800E+00  4.197641113E+03
6.765702931E+00  4.197638672E+03
6.775882062E+00  4.189583008E+03
6.786061192E+00  4.179138672E+03
6.796240323E+00  4.172163086E+03
6.806419454E+00  4.172123047E+03
6.816598584E+00  4.174950195E+03
6.826777715E+00  4.177020508E+03
6.836956845E+00  4.177777832E+03
6.847135976E+00  4.172432617E+03
6.857315107E+00  4.163936035E+03
6.867494237E+00  4.156967285E+03
6.877673368E+00  4.151407227E+03
6.887852499E+00  4.151729980E+03
6.898031629E+00  4.154523438E+03
6.908210760E+00  4.157476562E+03
6.918389890E+00  4.152384277E+03
6.928569021E+00  4.141877930E+03
6.938748152E+00  4.134555176E+03
6.948927282E+00  4.132280273E+03
6.959106413E+00  4.135407715E+03
6.969285543E+00  4.132362793E+03
6.979464674E+00  4.125420410E+03
6.989643805E+00  4.117197754E+03
6.999822935E+00  4.112839355E+03
7.010002066E+00  4.110209961E+03
7.020181197E+00  4.104467773E+03
7.030360327E+00  4.096016602E+03
7.040539458E+00  4.092140869E+03
7.050718588E+00  4.093773193E+03
7.060897719E+00  4.095346191E+03
7.071076850E+00  4.093378662E+03
7.081255980E+00  4.088707031E+03
7.091435111E+00  4.086708740E+03
7.101614242E+00  4.085764404E+03
7.111793372E+00  4.080412598E+03
7.121972503E+00  4.069787842E+03
7.132151633E+00  4.063177490E+03
7.142330764E+00  4.059272461E+03
7.152509895E+00  4.059125977E+03
7.162689025E+00  4.056805908E+03
7.172868156E+00  4.053649414E+03
7.183047286E+00  4.049420166E+03
7.193226417E+00  4.042505371E+03
7.203405548E+00  4.034167969E+03
7.213584678E+00  4.028389648E+03
7.223763809E+00  4.026126221E+03
7.233942940E+00  4.022028320E+03
7.244122070E+00  4.020780518E+03
7.254301201E+00  4.023306885E+03
7.264480331E+00  4.020900391E+03
7.274659462E+00  4.015958008E+03
7.284838593E+00  4.008918701E+03
7.295017723E+00  4.003742920E+03
7.305196854E+00  4.002485596E+03
7.315375985E+00  4.003272705E+03
7.325555115E+00  4.000707275E+03
7.335734246E+00  3.995962646E+03
7.345913376E+00  3.991956055E+03
7.356092507E+00  3.986923828E+03
7.366271638E+00  3.984140381E+03
7.376450768E+00  3.983095215E+03
7.386629899E+00  3.982591064E+03
7.396809029E+00  3.978584717E+03
7.406988160E+00  3.970991455E+03
7.417167291E+00  3.963710449E+03
7.427346421E+00  3.954339600E+03
7.437525552E+00  3.946448242E+03
7.447704683E+00  3.944524658E+03
7.457883813E+00  3.944438721E+03
7.468062944E+00  3.940785889E+03
7.478242074E+00  3.931717041E+03
7.488421205E+00  3.924128174E+03
7.498600336E+00  3.917674805E+03
7.508779466E+00  3.911663330E+03
7.518958597E+00  3.906921387E+03
7.529137728E+00  3.903324707E+03
7.539316858E+00  3.899912598E+03
7.549495989E+00  3.898410645E+03
7.559675119E+00  3.897571533E+03
7.569854250E+00  3.892705811E+03
7.580033381E+00  3.885757080E+03
7.590212511E+00  3.878180664E+03
7.600391642E+00  3.870198486E+03
7.610570772E+00  3.863952637E+03
7.620749903E+00  3.862399170E+03
7.630929034E+00  3.864793213E+03
7.641108164E+00  3.863259766E+03
7.651287295E+00  3.857934570E+03
7.661466426E+00  3.849010010E+03
7.671645556E+00  3.840057861E+03
7.681824687E+00  3.827461670E+03
7.692003817E+00  3.817981689E+03
7.702182948E+00  3.815266113E+03
7.712362079E+00  3.813505859E+03
7.722541209E+00  3.810468262E+03
7.732720340E+00  3.806437256E+03
7.742899471E+00  3.800901611E+03
7.753078601E+00  3.792321289E+03
7.763257732E+00  3.788146973E+03
7.773436862E+00  3.786782471E+03
7.783615993E+00  3.781819824E+03
7.793795124E+00  3.774292725E+03
7.803974254E+00  3.768621338E+03
7.814153385E+00  3.767686523E+03
7.824332515E+00  3.767461426E+03
7.834511646E+00  3.764696533E+03
7.844690777E+00  3.757654785E+03
7.854869907E+00  3.751603516E+03
7.865049038E+00  3.745365479E+03
7.875228169E+00  3.737854004E+03
7.885407299E+00  3.731089111E+03
7.895586430E+00  3.724578369E+03
7.905765560E+00  3.717022705E+03
7.915944691E+00  3.713829834E+03
7.926123822E+00  3.712573486E+03
7.936302952E+00  3.709969482E+03
7.946482083E+00  3.707739990E+03
7.956661214E+00  3.700495605E+03
7.966840344E+00  3.694140869E+03
7.977019475E+00  3.691114258E+03
7.987198605E+00  3.689646484E+03
7.997377736E+00  3.684702393E+03
8.007556867E+00  3.679180908E+03
8.017735997E+00  3.672287598E+03
8.027915128E+00  3.665236084E+03
8.038094258E+00  3.657783447E+03
8.048273389E+00  3.657294678E+03
8.058452520E+00  3.655740967E+03
8.068631650E+00  3.651405762E+03
8.078810781E+00  3.645480225E+03
8.088989912E+00  3.638126465E+03
8.099169042E+00  3.630176514E+03
8.109348173E+00  3.624666992E+03
8.119527303E+00  3.620698486E+03
8.129706434E+00  3.619074219E+03
8.139885565E+00  3.617185547E+03
8.150064695E+00  3.613356689E+03
8.160243826E+00  3.610981201E+03
8.170422957E+00  3.611450684E+03
8.180602087E+00  3.608910645E+03
8.190781218E+00  3.606137695E+03
8.200960348E+00  3.601729980E+03
8.211139479E+00  3.591636230E+03
8.221318610E+00  3.583816895E+03
8.231497740E+00  3.576067139E+03
8.241676871E+00  3.567134033E+03
8.251856001E+00  3.558708252E+03
8.262035132E+00  3.554193848E+03
8.272214263E+00  3.552845215E+03
8.282393393E+00  3.550290527E+03
8.292572524E+00  3.549703369E+03
8.302751655E+00  3.547691406E+03
8.312930785E+00  3.541046631E+03
8.323109916E+00  3.536545166E+03
8.333289046E+00  3.532818359E+03
8.343468177E+00  3.528849609E+03
8.353647308E+00  3.526869629E+03
8.363826438E+00  3.529323975E+03
8.374005569E+00  3.526950928E+03
8.384184700E+00  3.518712891E+03
8.394363830E+00  3.508854492E+03
8.404542961E+00  3.498098877E+03
8.414722091E+00  3.490677002E+03
8.424901222E+00  3.487093506E+03
8.435080353E+00  3.484812744E+03
8.445259483E+00  3.481009277E+03
8.455438614E+00  3.477219971E+03
8.465617744E+00  3.474319336E+03
8.475796875E+00  3.469815918E+03
8.485976006E+00  3.464122314E+03
8.496155136E+00  3.458370117E+03
8.506334267E+00  3.454136719E+03
8.516513398E+00  3.448547607E+03
8.526692528E+00  3.444095215E+03
8.536871659E+00  3.438098633E+03
8.547050789E+00  3.436484375E+03
8.557229920E+00  3.436409668E+03
8.567409051E+00  3.434040527E+03
8.577588181E+00  3.431221436E+03
8.587767312E+00  3.426490723E+03
8.597946443E+00  3.418173584E+03
8.608125573E+00  3.411333984E+03
8.618304704E+00  3.408592529E+03
8.628483834E+00  3.404679443E+03
8.638662965E+00  3.398348145E+03
8.648842096E+00  3.390836670E+03
8.659021226E+00  3.387855713E+03
8.669200357E+00  3.386232910E+03
8.679379487E+00  3.381261230E+03
8.689558618E+00  3.375831543E+03
8.699737749E+00  3.372929199E+03
8.709916879E+00  3.369480713E+03
8.720096010E+00  3.366545654E+03
8.730275141E+00  3.359871094E+03
8.740454271E+00  3.352611572E+03
8.750633402E+00  3.345426270E+03
8.760812532E+00  3.338198730E+03
8.770991663E+00  3.333545410E+03
8.781170794E+00  3.329449951E+03
8.791349924E+00  3.324584961E+03
8.801529055E+00  3.319094727E+03
8.811708185E+00  3.316039551E+03
8.821887316E+00  3.316589844E+03
8.832066447E+00  3.314280518E+03
8.842245577E+00  3.309656494E+03
8.852424708E+00  3.304255371E+03
8.862603839E+00  3.300503418E+03
8.872782969E+00  3.298951172E+03
8.882962100E+00  3.298155518E+03
8.893141230E+00  3.296498535E+03
8.903320361E+00  3.292767578E+03
8.913499492E+00  3.289476074E+03
8.923678622E+00  3.287126953E+03
8.933857753E+00  3.281774902E+03
8.944036884E+00  3.274086426E+03
8.954216014E+00  3.266588623E+03
8.964395145E+00  3.262120850E+03
8.974574275E+00  3.260922119E+03
8.984753406E+00  3.255282471E+03
8.994932537E+00  3.247896729E+03
9.005111667E+00  3.243607910E+03
9.015290798E+00  3.239091064E+03
9.025469928E+00  3.235095703E+03
9.035649059E+00  3.230759033E+03
9.045828190E+00  3.224187744E+03
9.056007320E+00  3.217684814E+03
9.066186451E+00  3.215062500E+03
9.076365582E+00  3.214559814E+03
9.086544712E+00  3.211142822E+03
9.096723843E+00  3.205836670E+03
9.106902973E+00  3.200865479E+03
9.117082104E+00  3.196591309E+03
9.127261235E+00  3.194119385E+03
9.137440365E+00  3.189978516E+03
9.147619496E+00  3.182687500E+03
9.157798627E+00  3.178444580E+03
9.167977757E+00  3.175214111E+03
9.178156888E+00  3.168276611E+03
9.188336018E+00  3.160487549E+03
9.198515149E+00  3.158986328E+03
9.208694280E+00  3.158237061E+03
9.218873410E+00  3.153963867E+03
9.229052541E+00  3.149983398E+03
9.239231671E+00  3.148653076E+03
9.249410802E+00  3.146321533E+03
9.259589933E+00  3.140635010E+03
9.269769063E+00  3.134419434E+03
9.279948194E+00  3.131986328E+03
9.290127325E+00  3.131728760E+03
9.300306455E+00  3.127039795E+03
9.310485586E+00  3.118479004E+03
9.320664716E+00  3.110053467E+03
9.330843847E+00  3.104249023E+03
9.341022978E+00  3.102682129E+03
9.351202108E+00  3.102162842E+03
9.361381239E+00  3.096717285E+03
9.371560370E+00  3.092170166E+03
9.381739500E+00  3.089890381E+03
9.391918631E+00  3.087532471E+03
9.402097761E+00  3.083792480E+03
9.412276892E+00  3.080611572E+03
9.422456023E+00  3.080360840E+03
9.432635153E+00  3.077220215E+03
9.442814284E+00  3.070753662E+03
9.452993414E+00  3.062550293E+03
9.463172545E+00  3.056308105E+03
9.473351676E+00  3.050215332E+03
9.483530806E+00  3.044698486E+03
9.493709937E+00  3.040569336E+03
9.503889068E+00  3.036157715E+03
9.514068198E+00  3.030827637E+03
9.524247329E+00  3.025951172E+03
9.534426459E+00  3.024288818E+03
9.544605590E+00  3.025328857E+03
9.554784721E+00  3.021714844E+03
9.564963851E+00  3.014479248E+03
9.575142982E+00  3.008308594E+03
9.585322113E+00  3.004278320E+03
9.595501243E+00  2.998806396E+03
9.605680374E+00  2.994191650E+03
9.615859504E+00  2.991677734E+03
9.626038635E+00  2.986263672E+03
9.636217766E+00  2.978862305E+03
9.646396896E+00  2.972173096E+03
9.656576027E+00  2.963928467E+03
9.666755157E+00  2.959791260E+03
9.676934288E+00  2.962930176E+03
9.687113419E+00  2.964631836E+03
9.697292549E+00  2.961016113E+03
9.707471680E+00  2.954878906E+03
9.717650811E+00  2.949658447E+03
9.727829941E+00  2.948805420E+03
9.738009072E+00  2.946461670E+03
9.748188202E+00  2.940750000E+03
9.758367333E+00  2.933980713E+03
9.768546464E+00  2.929742188E+03
9.778725594E+00  2.928528809E+03
9.788904725E+00  2.930644531E+03
9.799083856E+00  2.928185303E+03
9.809262986E+00  2.922158936E+03
9.819442117E+00  2.915349854E+03
9.829621247E+00  2.911430176E+03
9.839800378E+00  2.907941650E+03
9.849979509E+00  2.903134521E+03
9.860158639E+00  2.898390625E+03
9.870337770E+00  2.894082031E+03
9.880516900E+00  2.891444580E+03
9.890696031E+00  2.888033691E+03
9.900875162E+00  2.883223633E+03
9.911054292E+00  2.880099365E+03
9.921233423E+00  2.876745850E+03
9.931412554E+00  2.875037109E+03
9.941591684E+00  2.874035889E+03
9.951770815E+00  2.869792480E+03
9.961949945E+00  2.864945068E+03
9.972129076E+00  2.857275146E+03
9.982308207E+00  2.849314697E+03
9.992487337E+00  2.844558105E+03
1.000266647E+01  2.841689697E+03
1.001284560E+01  2.837571045E+03
1.002302473E+01  2.831916016E+03
1.003320386E+01  2.828485107E+03
1.004338299E+01  2.829204590E+03
1.005356212E+01  2.829202393E+03
1.006374125E+01  2.826639648E+03
1.007392038E+01  2.824374756E+03
1.008409951E+01  2.821196777E+03
1.009427864E+01  2.815362305E+03
1.010445777E+01  2.808755859E+03
1.011463690E+01  2.801121338E+03
1.012481604E+01  2.793639404E+03
1.013499517E+01  2.787217529E+03
1.014517430E+01  2.782803467E+03
1.015535343E+01  2.779676025E+03
1.016553256E+01  2.775479980E+03
1.017571169E+01  2.773560547E+03
1.018589082E+01  2.773429932E+03
1.019606995E+01  2.772972168E+03
1.020624908E+01  2.771214355E+03
1.021642821E+01  2.767446777E+03
1.022660734E+01  2.762593018E+03
1.023678647E+01  2.757574951E+03
1.024696560E+01  2.753472168E+03
1.025714473E+01  2.749560303E+03
1.026732386E+01  2.746062256E+03
1.027750299E+01  2.741260498E+03
1.028768213E+01  2.737501221E+03
1.029786126E+01  2.733333252E+03
1.030804039E+01  2.728755371E+03
1.031821952E+01  2.722509521E+03
1.032839865E+01  2.718772217E+03
1.033857778E+01  2.715078125E+03
1.034875691E+01  2.711923828E+03
1.035893604E+01  2.709195312E+03
1.036911517E+01  2.707426270E+03
1.037929430E+01  2.705918213E+03
1.038947343E+01  2.701181641E+03
1.039965256E+01  2.696920410E+03
1.040983169E+01  2.692436523E+03
1.042001082E+01  2.688197510E+03
1.043018995E+01  2.684381592E+03
1.044036908E+01  2.681260498E+03
1.045054822E+01  2.674440918E+03
1.046072735E+01  2.671788818E+03
1.047090648E+01  2.670095215E+03
1.048108561E+01  2.664968750E+03
1.049126474E+01  2.660293457E+03
1.050144387E+01  2.659443359E+03
1.051162300E+01  2.656526611E+03
1.052180213E+01  2.650321045E+03
1.053198126E+01  2.641535645E+03
1.054216039E+01  2.636066406E+03
1.055233952E+01  2.634333252E+03
1.056251865E+01  2.632641357E+03
1.057269778E+01  2.628941650E+03
1.058287691E+01  2.626372803E+03
1.059305604E+01  2.623860107E+03
1.060323517E+01  2.619813721E+03
1.061341431E+01  2.613068115E+03
1.062359344E+01  2.604201660E+03
1.063377257E+01  2.596167480E+03
1.064395170E+01  2.593478027E+03
1.065413083E+01  2.592905029E+03
1.066430996E+01  2.589489990E+03
1.067448909E+01  2.586403809E+03
1.068466822E+01  2.583207031E+03
1.069484735E+01  2.580359131E+03
1.070502648E+01  2.576788086E+03
1.071520561E+01  2.572808350E+03
1.072538474E+01  2.568605469E+03
1.073556387E+01  2.565212402E+03
1.074574300E+01  2.561314941E+03
1.075592213E+01  2.557493408E+03
1.076610126E+01  2.554910889E+03
1.077628039E+01  2.550065674E+03
1.078645953E+01  2.544303223E+03
1.079663866E+01  2.538374512E+03
1.080681779E+01  2.533665283E+03
1.081699692E+01  2.532785645E+03
1.082717605E+01  2.529875244E+03
1.083735518E+01  2.524086426E+03
1.084753431E+01  2.517226318E+03
1.085771344E+01  2.514368164E+03
1.086789257E+01  2.514832031E+03
1.087807170E+01  2.514687500E+03
1.088825083E+01  2.511675293E+03
1.089842996E+01  2.508941406E+03
1.090860909E+01  2.505477783E+03
1.091878822E+01  2.501375977E+03
1.092896735E+01  2.497925781E+03
1.093914648E+01  2.494383057E+03
1.094932562E+01  2.492050781E+03
1.095950475E+01  2.487825928E+03
1.096968388E+01  2.483171143E+03
1.097986301E+01  2.478552979E+03
1.099004214E+01  2.475781250E+03
1.100022127E+01  2.473784668E+03
1.101040040E+01  2.470518066E+03
1.102057953E+01  2.466570801E+03
1.103075866E+01  2.462763672E+03
1.104093779E+01  2.459229980E+03
1.105111692E+01  2.454670410E+03
1.106129605E+01  2.448099121E+03
1.107147518E+01  2.444716797E+03
1.108165431E+01  2.440730957E+03
1.109183344E+01  2.436699951E+03
1.110201257E+01  2.432817139E+03
1.111219171E+01  2.432006592E+03
1.112237084E+01  2.433464600E+03
1.113254997E+01  2.432413574E+03
1.114272910E+01  2.428519287E+03
1.115290823E+01  2.425676025E+03
1.116308736E+01  2.420752686E+03
1.117326649E+01  2.414900879E+03
1.118344562E+01  2.409436768E+03
1.119362475E+01  2.406983643E+03
1.120380388E+01  2.402436768E+03
1.121398301E+01  2.399760254E+03
1.122416214E+01  2.399592529E+03
1.123434127E+01  2.399568115E+03
1.124452040E+01  2.398204834E+03
1.125469953E+01  2.394649414E+03
1.126487866E+01  2.392450684E+03
1.127505780E+01  2.389415283E+03
1.128523693E+01  2.384836914E+03
1.129541606E+01  2.380918457E+03
1.130559519E+01  2.376578613E+03
1.131577432E+01  2.373313477E+03
1.132595345E+01  2.369987549E+03
1.133613258E+01  2.366771240E+03
1.134631171E+01  2.360397949E+03
1.135649084E+01  2.355794434E+03
1.136666997E+01  2.354474121E+03
1.137684910E+01  2.353566650E+03
1.138702823E+01  2.351031250E+03
1.139720736E+01  2.348291748E+03
1.140738649E+01  2.345897705E+03
1.141756562E+01  2.343147705E+03
1.142774475E+01  2.339666260E+03
1.143792389E+01  2.335494629E+03
1.144810302E+01  2.332664307E+03
1.145828215E+01  2.330771484E+03
1.146846128E+01  2.328002441E+03
1.147864041E+01  2.324506348E+03
1.148881954E+01  2.320477295E+03
1.149899867E+01  2.319273926E+03
1.150917780E+01  2.318523193E+03
1.151935693E+01  2.316316895E+03
1.152953606E+01  2.313294678E+03
1.153971519E+01  2.309069336E+03
1.154989432E+01  2.302992676E+03
1.156007345E+01  2.298202881E+03
1.157025258E+01  2.297521973E+03
1.158043171E+01  2.295382080E+03
1.159061084E+01  2.291207031E+03
1.160078998E+01  2.288547607E+03
1.161096911E+01  2.287063965E+03
1.162114824E+01  2.284400635E+03
1.163132737E+01  2.281317139E+03
1.164150650E+01  2.278191406E+03
1.165168563E+01  2.278735596E+03
1.166186476E+01  2.278964844E+03
1.167204389E+01  2.279207275E+03
1.168222302E+01  2.276930908E+03
1.169240215E+01  2.274277832E+03
1.170258128E+01  2.270686768E+03
1.171276041E+01  2.268167480E+03
1.172293954E+01  2.265327881E+03
1.173311867E+01  2.262149414E+03
1.174329780E+01  2.259208740E+03
1.175347693E+01  2.256115234E+03
1.176365606E+01  2.252655273E+03
1.177383520E+01  2.249928467E+03
1.178401433E+01  2.248919189E+03
1.179419346E+01  2.248878418E+03
1.180437259E+01  2.247424561E+03
1.181455172E+01  2.242469238E+03
1.182473085E+01  2.238325195E+03
1.183490998E+01  2.232754395E+03
1.184508911E+01  2.228827637E+03
1.185526824E+01  2.227961670E+03
1.186544737E+01  2.226283936E+03
1.187562650E+01  2.223270264E+03
1.188580563E+01  2.221225586E+03
1.189598476E+01  2.219128174E+03
1.190616389E+01  2.216989258E+03
1.191634302E+01  2.211881348E+03
1.192652215E+01  2.209558350E+03
1.193670129E+01  2.206007812E+03
1.194688042E+01  2.202173584E+03
1.195705955E+01  2.199013428E+03
1.196723868E+01  2.197209717E+03
1.197741781E+01  2.196540771E+03
1.198759694E+01  2.193736572E+03
1.199777607E+01  2.189838135E+03
1.200795520E+01  2.187459717E+03
1.201813433E+01  2.184168213E+03
1.202831346E+01  2.180681641E+03
1.203849259E+01  2.177434570E+03
1.204867172E+01  2.177088623E+03
1.205885085E+01  2.176941895E+03
1.206902998E+01  2.175055176E+03
1.207920911E+01  2.171194336E+03
1.208938824E+01  2.168873535E+03
1.209956738E+01  2.167946533E+03
1.210974651E+01  2.163781738E+03
1.211992564E+01  2.159113525E+03
1.213010477E+01  2.154900146E+03
1.214028390E+01  2.154014160E+03
1.215046303E+01  2.152364990E+03
1.216064216E+01  2.148591553E+03
1.217082129E+01  2.144525391E+03
1.218100042E+01  2.142000000E+03
1.219117955E+01  2.140074951E+03
1.220135868E+01  2.138357422E+03
1.221153781E+01  2.135562988E+03
1.222171694E+01  2.132272217E+03
1.223189607E+01  2.129194824E+03
1.224207520E+01  2.125371094E+03
1.225225433E+01  2.123382812E+03
1.226243347E+01  2.122052490E+03
1.227261260E+01  2.118723633E+03
1.228279173E+01  2.113933594E+03
1.229297086E+01  2.110420410E+03
1.230314999E+01  2.109066162E+03
1.231332912E+01  2.107149902E+03
1.232350825E+01  2.107160645E+03
1.233368738E+01  2.104708740E+03
1.234386651E+01  2.101149170E+03
1.235404564E+01  2.098229492E+03
1.236422477E+01  2.098012207E+03
1.237440390E+01  2.097820068E+03
1.238458303E+01  2.095817139E+03
1.239476216E+01  2.092650635E+03
1.240494129E+01  2.088928955E+03
1.241512042E+01  2.086492432E+03
1.242529956E+01  2.084411865E+03
1.243547869E+01  2.083731201E+03
1.244565782E+01  2.082025635E+03
1.245583695E+01  2.080898926E+03
1.246601608E+01  2.078065430E+03
1.247619521E+01  2.075367920E+03
1.248637434E+01  2.073114014E+03
1.249655347E+01  2.070016602E+03
1.250673260E+01  2.066705566E+03
1.251691173E+01  2.064302002E+03
1.252709086E+01  2.062525879E+03
1.253726999E+01  2.060706055E+03
1.254744912E+01  2.059403076E+03
1.255762825E+01  2.056186279E+03
1.256780738E+01  2.052402344E+03
1.257798651E+01  2.048884766E+03
1.258816565E+01  2.048009766E+03
1.259834478E+01  2.048163330E+03
1.260852391E+01  2.049431885E+03
1.261870304E+01  2.049422607E+03
1.262888217E+01  2.046907227E+03
1.263906130E+01  2.041270264E+03
1.264924043E+01  2.036682129E+03
1.265941956E+01  2.033419067E+03
1.266959869E+01  2.032368164E+03
1.267977782E+01  2.030125732E+03
1.268995695E+01  2.026365601E+03
1.270013608E+01  2.023985229E+03
1.271031521E+01  2.023093750E+03
1.272049434E+01  2.021482666E+03
1.273067347E+01  2.020022217E+03
1.274085260E+01  2.019187134E+03
1.275103173E+01  2.018577393E+03
1.276121087E+01  2.016598511E+03
1.277139000E+01  2.014518921E+03
1.278156913E+01  2.013056641E+03
1.279174826E+01  2.012511475E+03
1.280192739E+01  2.009725830E+03
1.281210652E+01  2.004550659E+03
1.282228565E+01  1.998508545E+03
1.283246478E+01  1.995726440E+03
1.284264391E+01  1.995099731E+03
1.285282304E+01  1.995569702E+03
1.286300217E+01  1.995567749E+03
1.287318130E+01  1.992772095E+03
1.288336043E+01  1.989971069E+03
1.289353956E+01  1.988816772E+03
1.290371869E+01  1.985152710E+03
1.291389782E+01  1.980419189E+03
1.292407696E+01  1.977570923E+03
1.293425609E+01  1.976478394E+03
1.294443522E+01  1.975820190E+03
1.295461435E+01  1.974867432E+03
1.296479348E+01  1.972682861E+03
1.297497261E+01  1.969629272E+03
1.298515174E+01  1.967957642E+03
1.299533087E+01  1.966765625E+03
1.300551000E+01  1.965036499E+03
1.301568913E+01  1.962604736E+03
1.302586826E+01  1.959972412E+03
1.303604739E+01  1.957309326E+03
1.304622652E+01  1.955986328E+03
1.305640565E+01  1.953365601E+03
1.306658478E+01  1.951078979E+03
1.307676391E+01  1.948202881E+03
1.308694305E+01  1.945741699E+03
1.309712218E+01  1.942934326E+03
1.310730131E+01  1.940882446E+03
1.311748044E+01  1.940486572E+03
1.312765957E+01  1.941045654E+03
1.313783870E+01  1.939092285E+03
1.314801783E+01  1.935937744E+03
1.315819696E+01  1.934978394E+03
1.316837609E+01  1.934216187E+03
1.317855522E+01  1.932098267E+03
1.318873435E+01  1.928223755E+03
1.319891348E+01  1.925027344E+03
1.320909261E+01  1.924404175E+03
1.321927174E+01  1.924623169E+03
1.322945087E+01  1.923496582E+03
1.323963000E+01  1.921545898E+03
1.324980914E+01  1.918905396E+03
1.325998827E+01  1.917777832E+03
1.327016740E+01  1.917620605E+03
1.328034653E+01  1.916084961E+03
1.329052566E+01  1.912963501E+03
1.330070479E+01  1.909265869E+03
1.331088392E+01  1.906435303E+03
1.332106305E+01  1.905374023E+03
1.333124218E+01  1.904246338E+03
1.334142131E+01  1.903867188E+03
1.335160044E+01  1.902631958E+03
1.336177957E+01  1.900785034E+03
1.337195870E+01  1.899871460E+03
1.338213783E+01  1.897468994E+03
1.339231696E+01  1.895304077E+03
1.340249609E+01  1.893396240E+03
1.341267523E+01  1.889906616E+03
1.342285436E+01  1.886308716E+03
1.343303349E+01  1.883923706E+03
1.344321262E+01  1.880939819E+03
1.345339175E+01  1.878112671E+03
1.346357088E+01  1.876071533E+03
1.347375001E+01  1.874829468E+03
1.348392914E+01  1.873380859E+03
1.349410827E+01  1.872799072E+03
1.350428740E+01  1.873038208E+03
1.351446653E+01  1.871305298E+03
1.352464566E+01  1.867865601E+03
1.353482479E+01  1.863025146E+03
1.354500392E+01  1.856697021E+03
1.355518305E+01  1.853482056E+03
1.356536218E+01  1.852990356E+03
1.357554132E+01  1.853858032E+03
1.358572045E+01  1.852757568E+03
1.359589958E+01  1.851840698E+03
1.360607871E+01  1.851049927E+03
1.361625784E+01  1.850727173E+03
1.362643697E+01  1.851453125E+03
1.363661610E+01  1.851525146E+03
1.364679523E+01  1.850259277E+03
1.365697436E+01  1.847588623E+03
1.366715349E+01  1.844625610E+03
1.367733262E+01  1.842854004E+03
1.368751175E+01  1.840928833E+03
1.369769088E+01  1.838991577E+03
1.370787001E+01  1.838601196E+03
1.371804914E+01  1.837145874E+03
1.372822827E+01  1.836620239E+03
1.373840741E+01  1.835361572E+03
1.374858654E+01  1.833973389E+03
1.375876567E+01  1.832243042E+03
1.376894480E+01  1.830247925E+03
1.377912393E+01  1.829439819E+03
1.378930306E+01  1.829588501E+03
1.379948219E+01  1.827971924E+03
1.380966132E+01  1.824940308E+03
1.381984045E+01  1.823481934E+03
1.383001958E+01  1.821335205E+03
1.384019871E+01  1.818723633E+03
1.385037784E+01  1.817322998E+03
1.386055697E+01  1.815329590E+03
1.387073610E+01  1.814141479E+03
1.388091523E+01  1.813557251E+03
1.389109436E+01  1.811765381E+03
1.390127349E+01  1.808414062E+03
1.391145263E+01  1.804006348E+03
1.392163176E+01  1.801484863E+03
1.393181089E+01  1.799657837E+03
1.394199002E+01  1.798998047E+03
1.395216915E+01  1.798469849E+03
1.396234828E+01  1.797834717E+03
1.397252741E+01  1.795256836E+03
1.398270654E+01  1.794744019E+03
1.399288567E+01  1.794511353E+03
1.400306480E+01  1.793912842E+03
1.401324393E+01  1.793433594E+03
1.402342306E+01  1.791892822E+03
1.403360219E+01  1.787785889E+03
1.404378132E+01  1.783990723E+03
1.405396045E+01  1.784110352E+03
1.406413958E+01  1.784563721E+03
1.407431872E+01  1.783739258E+03
1.408449785E+01  1.784481689E+03
1.409467698E+01  1.785584595E+03
1.410485611E+01  1.783639771E+03
1.411503524E+01  1.779333252E+03
1.412521437E+01  1.774740845E+03
1.413539350E+01  1.772936279E+03
1.414557263E+01  1.772660156E+03
1.415575176E+01  1.773023804E+03
1.416593089E+01  1.772286011E+03
1.417611002E+01  1.769257446E+03
1.418628915E+01  1.765288696E+03
1.419646828E+01  1.762566406E+03
1.420664741E+01  1.761608887E+03
1.421682654E+01  1.762106079E+03
1.422700567E+01  1.760660522E+03
1.423718481E+01  1.759159546E+03
1.424736394E+01  1.758482544E+03
1.425754307E+01  1.757114746E+03
1.426772220E+01  1.755298340E+03
1.427790133E+01  1.754068359E+03
1.428808046E+01  1.753702393E+03
1.429825959E+01  1.752411865E+03
1.430843872E+01  1.750061157E+03
1.431861785E+01  1.749059448E+03
1.432879698E+01  1.749375977E+03
1.433897611E+01  1.748055054E+03
1.434915524E+01  1.747293213E+03
1.435933437E+01  1.747641846E+03
1.436951350E+01  1.746896362E+03
1.437969263E+01  1.744351074E+03
1.438987176E+01  1.741405640E+03
1.440005090E+01  1.738962646E+03
1.441023003E+01  1.737347290E+03
1.442040916E+01  1.736716431E+03
1.443058829E+01  1.735243286E+03
1.444076742E+01  1.733665039E+03
1.445094655E+01  1.732165161E+03
1.446112568E+01  1.731492065E+03
1.447130481E+01  1.730893433E+03
1.448148394E+01  1.728961914E+03
1.449166307E+01  1.726689087E+03
1.450184220E+01  1.726156738E+03
1.451202133E+01  1.724973755E+03
1.452220046E+01  1.723906494E+03
1.453237959E+01  1.722478760E+03
1.454255872E+01  1.721848145E+03
1.455273785E+01  1.721382324E+03
1.456291699E+01  1.720749756E+03
1.457309612E+01  1.719369019E+03
1.458327525E+01  1.718334961E+03
1.459345438E+01  1.716395142E+03
1.460363351E+01  1.715435303E+03
1.461381264E+01  1.714377808E+03
1.462399177E+01  1.712953735E+03
1.463417090E+01  1.711683716E+03
1.464435003E+01  1.711765991E+03
1.465452916E+01  1.712165405E+03
1.466470829E+01  1.713214600E+03
1.467488742E+01  1.713619507E+03
1.468506655E+01  1.711348022E+03
1.469524568E+01  1.709583130E+03
1.470542481E+01  1.708209106E+03
1.471560394E+01  1.706280884E+03
1.472578308E+01  1.704486328E+03
1.473596221E+01  1.702364746E+03
1.474614134E+01  1.699356934E+03
1.475632047E+01  1.700031494E+03
1.476649960E+01  1.702281128E+03
1.477667873E+01  1.701711060E+03
1.478685786E+01  1.700124146E+03
1.479703699E+01  1.698469116E+03
1.480721612E+01  1.695181152E+03
1.481739525E+01  1.691909912E+03
1.482757438E+01  1.691624268E+03
1.483775351E+01  1.690951660E+03
1.484793264E+01  1.690158936E+03
1.485811177E+01  1.688949341E+03
1.486829090E+01  1.688611450E+03
1.487847003E+01  1.686795044E+03
1.488864916E+01  1.684224487E+03
1.489882830E+01  1.683048340E+03
1.490900743E+01  1.681747925E+03
1.491918656E+01  1.679446411E+03
1.492936569E+01  1.678395752E+03
1.493954482E+01  1.678347168E+03
1.494972395E+01  1.677194824E+03
1.495990308E+01  1.676497559E+03
1.497008221E+01  1.677176392E+03
1.498026134E+01  1.677663818E+03
1.499044047E+01  1.676922729E+03
1.500061960E+01  1.675493286E+03
1.501079873E+01  1.672517334E+03
1.502097786E+01  1.669318848E+03
1.503115699E+01  1.669184326E+03
1.504133612E+01  1.670932373E+03
1.505151525E+01  1.670457031E+03
1.506169439E+01  1.669703247E+03
1.507187352E+01  1.670104248E+03
1.508205265E+01  1.669157959E+03
1.509223178E+01  1.667776733E+03
1.510241091E+01  1.667350830E+03
1.511259004E+01  1.666657837E+03
1.512276917E+01  1.665417236E+03
1.513294830E+01  1.663758545E+03
1.514312743E+01  1.662220947E+03
1.515330656E+01  1.660918335E+03
1.516348569E+01  1.659702881E+03
1.517366482E+01  1.659509033E+03
1.518384395E+01  1.659305542E+03
1.519402308E+01  1.658374512E+03
1.520420221E+01  1.656058838E+03
1.521438134E+01  1.653883667E+03
1.522456048E+01  1.652689331E+03
1.523473961E+01  1.652500122E+03
1.524491874E+01  1.651512695E+03
1.525509787E+01  1.650244873E+03
1.526527700E+01  1.648279175E+03
1.527545613E+01  1.648045654E+03
1.528563526E+01  1.647863159E+03
1.529581439E+01  1.647566650E+03
1.530599352E+01  1.647464355E+03
1.531617265E+01  1.648328491E+03
1.532635178E+01  1.649664307E+03
1.533653091E+01  1.650221924E+03
1.534671004E+01  1.649399902E+03
1.535688917E+01  1.646616699E+03
1.536706830E+01  1.644320801E+03
1.537724743E+01  1.643309814E+03
1.538742657E+01  1.642533569E+03
1.539760570E+01  1.639638184E+03
1.540778483E+01  1.638413818E+03
1.541796396E+01  1.635854980E+03
1.542814309E+01  1.634070435E+03
1.543832222E+01  1.634087524E+03
1.544850135E+01  1.634656982E+03
1.545868048E+01  1.634250122E+03
1.546885961E+01  1.633415649E+03
1.547903874E+01  1.631032104E+03
1.548921787E+01  1.630627319E+03
1.549939700E+01  1.631255127E+03
1.550957613E+01  1.631293579E+03
1.551975526E+01  1.631227661E+03
1.552993439E+01  1.629903076E+03
1.554011352E+01  1.628978149E+03
1.555029266E+01  1.626917969E+03
1.556047179E+01  1.623397705E+03
1.557065092E+01  1.621877319E+03
1.558083005E+01  1.623185303E+03
1.559100918E+01  1.623174927E+03
1.560118831E+01  1.622632568E+03
1.561136744E+01  1.621893677E+03
1.562154657E+01  1.620165161E+03
1.563172570E+01  1.619646240E+03
1.564190483E+01  1.620238770E+03
1.565208396E+01  1.619670654E+03
1.566226309E+01  1.617242676E+03
1.567244222E+01  1.616139404E+03
1.568262135E+01  1.615383667E+03
1.569280048E+01  1.614329712E+03
1.570297961E+01  1.613326660E+03
1.571315875E+01  1.613035278E+03
1.572333788E+01  1.612348511E+03
1.573351701E+01  1.611426636E+03
1.574369614E+01  1.609566650E+03
1.575387527E+01  1.607513062E+03
1.576405440E+01  1.607090332E+03
1.577423353E+01  1.607561157E+03
1.578441266E+01  1.607779053E+03
1.579459179E+01  1.605509277E+03
1.580477092E+01  1.603298584E+03
1.581495005E+01  1.603039062E+03
1.582512918E+01  1.602254028E+03
1.583530831E+01  1.600565430E+03
1.584548744E+01  1.600494507E+03
1.585566657E+01  1.599983643E+03
1.586584570E+01  1.597679077E+03
1.587602483E+01  1.594295654E+03
1.588620397E+01  1.593156372E+03
1.589638310E+01  1.593839844E+03
1.590656223E+01  1.595554810E+03
1.591674136E+01  1.595849731E+03
1.592692049E+01  1.593794312E+03
1.593709962E+01  1.591557739E+03
1.594727875E+01  1.589938232E+03
1.595745788E+01  1.588205444E+03
1.596763701E+01  1.586811646E+03
1.597781614E+01  1.587239868E+03
1.598799527E+01  1.586506104E+03
1.599817440E+01  1.585355225E+03
1.600835353E+01  1.586290771E+03
1.601853266E+01  1.588223267E+03
1.602871179E+01  1.587046753E+03
1.603889092E+01  1.585023071E+03
1.604907006E+01  1.583511597E+03
1.605924919E+01  1.581501953E+03
1.606942832E+01  1.581213867E+03
1.607960745E+01  1.580722290E+03
1.608978658E+01  1.578419556E+03
1.609996571E+01  1.576383911E+03
1.611014484E+01  1.576512695E+03
1.612032397E+01  1.575214233E+03
1.613050310E+01  1.573622559E+03
1.614068223E+01  1.573606689E+03
1.615086136E+01  1.575356201E+03
1.616104049E+01  1.574947388E+03
1.617121962E+01  1.573488770E+03
1.618139875E+01  1.572186523E+03
1.619157788E+01  1.571060425E+03
1.620175701E+01  1.571205688E+03
1.621193615E+01  1.571181763E+03
1.622211528E+01  1.569366943E+03
1.623229441E+01  1.568045654E+03
1.624247354E+01  1.568176758E+03
1.625265267E+01  1.568059204E+03
1.626283180E+01  1.567312744E+03
1.627301093E+01  1.566371826E+03
1.628319006E+01  1.565560791E+03
1.629336919E+01  1.563166504E+03
1.630354832E+01  1.561221069E+03
1.631372745E+01  1.560383301E+03
1.632390658E+01  1.560502930E+03
1.633408571E+01  1.558992310E+03
1.634426484E+01  1.558946167E+03
1.635444397E+01  1.558639771E+03
1.636462310E+01  1.556531738E+03
1.637480224E+01  1.556526978E+03
1.638498137E+01  1.557571411E+03
1.639516050E+01  1.556998901E+03
1.640533963E+01  1.555587280E+03
1.641551876E+01  1.556113281E+03
1.642569789E+01  1.557148804E+03
1.643587702E+01  1.556574951E+03
1.644605615E+01  1.553900513E+03
1.645623528E+01  1.550462158E+03
1.646641441E+01  1.549445679E+03
1.647659354E+01  1.550273438E+03
1.648677267E+01  1.549574097E+03
1.649695180E+01  1.547747070E+03
1.650713093E+01  1.547431030E+03
1.651731006E+01  1.547010498E+03
1.652748919E+01  1.544929565E+03
1.653766833E+01  1.543540405E+03
1.654784746E+01  1.544988647E+03
1.655802659E+01  1.544493896E+03
1.656820572E+01  1.543849609E+03
1.657838485E+01  1.544383057E+03
1.658856398E+01  1.543464478E+03
1.659874311E+01  1.542295898E+03
1.660892224E+01  1.542652466E+03
1.661910137E+01  1.541678345E+03
1.662928050E+01  1.539612793E+03
1.663945963E+01  1.538509888E+03
1.664963876E+01  1.537481689E+03
1.665981789E+01  1.537080933E+03
1.666999702E+01  1.535885498E+03
1.668017615E+01  1.533700684E+03
1.669035528E+01  1.530574829E+03
1.670053442E+01  1.528988037E+03
1.671071355E+01  1.529406982E+03
1.672089268E+01  1.530664429E+03
1.673107181E+01  1.531596313E+03
1.674125094E+01  1.531118896E+03
1.675143007E+01  1.528065674E+03
1.676160920E+01  1.527413330E+03
1.677178833E+01  1.528612183E+03
1.678196746E+01  1.528977783E+03
1.679214659E+01  1.527310181E+03
1.680232572E+01  1.524685425E+03
1.681250485E+01  1.524584351E+03
1.682268398E+01  1.523309814E+03
1.683286311E+01  1.521915161E+03
1.684304224E+01  1.520733521E+03
1.685322137E+01  1.519959229E+03
1.686340050E+01  1.519025269E+03
1.687357964E+01  1.519592651E+03
1.688375877E+01  1.519254883E+03
1.689393790E+01  1.518396118E+03
1.690411703E+01  1.517211426E+03
1.691429616E+01  1.516958374E+03
1.692447529E+01  1.516950562E+03
1.693465442E+01  1.515170410E+03
1.694483355E+01  1.514814453E+03
1.695501268E+01  1.514434570E+03
1.696519181E+01  1.512841919E+03
1.697537094E+01  1.510872559E+03
1.698555007E+01  1.510500610E+03
1.699572920E+01  1.510522705E+03
1.700590833E+01  1.511144165E+03
1.701608746E+01  1.509748779E+03
1.702626659E+01  1.507558838E+03
1.703644573E+01  1.506974243E+03
1.704662486E+01  1.507559570E+03
1.705680399E+01  1.507644287E+03
1.706698312E+01  1.506724243E+03
1.707716225E+01  1.506386353E+03
1.708734138E+01  1.504960449E+03
1.709752051E+01  1.504157227E+03
1.710769964E+01  1.503180786E+03
1.711787877E+01  1.501700195E+03
1.712805790E+01  1.501111694E+03
1.713823703E+01  1.501699707E+03
1.714841616E+01  1.499991211E+03
1.715859529E+01  1.498540039E+03
1.716877442E+01  1.498328979E+03
1.717895355E+01  1.498572388E+03
1.718913268E+01  1.499313110E+03
1.719931182E+01  1.500541626E+03
1.720949095E+01  1.502512207E+03
1.721967008E+01  1.502059814E+03
1.722984921E+01  1.500541382E+03
1.724002834E+01  1.498163574E+03
1.725020747E+01  1.496497314E+03
1.726038660E+01  1.496012573E+03
1.727056573E+01  1.495284058E+03
1.728074486E+01  1.493863403E+03
1.729092399E+01  1.493686279E+03
1.730110312E+01  1.494582642E+03
1.731128225E+01  1.493888184E+03
1.732146138E+01  1.491770020E+03
1.733164051E+01  1.489696289E+03
1.734181964E+01  1.488158569E+03
1.735199877E+01  1.486386719E+03
1.736217791E+01  1.486535034E+03
1.737235704E+01  1.487412476E+03
1.738253617E+01  1.487697144E+03
1.739271530E+01  1.485478271E+03
1.740289443E+01  1.483732422E+03
1.741307356E+01  1.484051758E+03
1.742325269E+01  1.485052979E+03
1.743343182E+01  1.485037109E+03
1.744361095E+01  1.484051514E+03
1.745379008E+01  1.482531494E+03
1.746396921E+01  1.480256592E+03
1.747414834E+01  1.479421997E+03
1.748432747E+01  1.477614014E+03
1.749450660E+01  1.475458740E+03
1.750468573E+01  1.476329956E+03
1.751486486E+01  1.479347656E+03
1.752504400E+01  1.479729736E+03
1.753522313E+01  1.478330322E+03
1.754540226E+01  1.476014771E+03
1.755558139E+01  1.473598633E+03
1.756576052E+01  1.473577637E+03
1.757593965E+01  1.472682007E+03
1.758611878E+01  1.470649780E+03
1.759629791E+01  1.469604370E+03
1.760647704E+01  1.470800537E+03
1.761665617E+01  1.471404663E+03
1.762683530E+01  1.469905151E+03
1.763701443E+01  1.469183594E+03
1.764719356E+01  1.469331787E+03
1.765737269E+01  1.469172363E+03
1.766755182E+01  1.469129150E+03
1.767773095E+01  1.469451538E+03
1.768791009E+01  1.468932617E+03
1.769808922E+01  1.468540405E+03
1.770826835E+01  1.467383789E+03
1.771844748E+01  1.466236572E+03
1.772862661E+01  1.463972778E+03
1.773880574E+01  1.463103516E+03
1.774898487E+01  1.463641479E+03
1.775916400E+01  1.463193604E+03
1.776934313E+01  1.463658569E+03
1.777952226E+01  1.462760742E+03
1.778970139E+01  1.460917725E+03
1.779988052E+01  1.459737061E+03
1.781005965E+01  1.458515869E+03
1.782023878E+01  1.457929199E+03
1.783041791E+01  1.457398438E+03
1.784059704E+01  1.456250977E+03
1.785077618E+01  1.455220825E+03
1.786095531E+01  1.454457397E+03
1.787113444E+01  1.455269043E+03
1.788131357E+01  1.454787109E+03
1.789149270E+01  1.452910400E+03
1.790167183E+01  1.451179321E+03
1.791185096E+01  1.450071777E+03
1.792203009E+01  1.450439575E+03
1.793220922E+01  1.450249634E+03
1.794238835E+01  1.449942993E+03
1.795256748E+01  1.450859375E+03
1.796274661E+01  1.452366211E+03
1.797292574E+01  1.452839600E+03
1.798310487E+01  1.452456055E+03
1.799328400E+01  1.451557495E+03
1.800346313E+01  1.450292480E+03
1.801364226E+01  1.448971680E+03
1.802382140E+01  1.450188721E+03
1.803400053E+01  1.452423218E+03
1.804417966E+01  1.452018799E+03
1.805435879E+01  1.453032471E+03
1.806453792E+01  1.456007812E+03
1.807471705E+01  1.458471313E+03
1.808489618E+01  1.461760986E+03
1.809507531E+01  1.464922485E+03
1.810525444E+01  1.467530273E+03
1.811543357E+01  1.469133423E+03
1.812561270E+01  1.469887939E+03
1.813579183E+01  1.468667236E+03
1.814597096E+01  1.465353027E+03
1.815615009E+01  1.462083618E+03
1.816632922E+01  1.459715820E+03
1.817650835E+01  1.455332520E+03
1.818668749E+01  1.450483887E+03
1.819686662E+01  1.447208496E+03
1.820704575E+01  1.443917603E+03
1.821722488E+01  1.440888794E+03
1.822740401E+01  1.438274902E+03
1.823758314E+01  1.435859131E+03
1.824776227E+01  1.433149170E+03
1.825794140E+01  1.432483154E+03
1.826812053E+01  1.432013428E+03
1.827829966E+01  1.431038330E+03
1.828847879E+01  1.429890503E+03
1.829865792E+01  1.429205322E+03
1.830883705E+01  1.428840576E+03
1.831901618E+01  1.428585083E+03
1.832919531E+01  1.427789429E+03
1.833937444E+01  1.427266968E+03
1.834955358E+01  1.427749878E+03
1.835973271E+01  1.426581177E+03
1.836991184E+01  1.425027100E+03
1.838009097E+01  1.423732422E+03
1.839027010E+01  1.422924561E+03
1.840044923E+01  1.420727783E+03
1.841062836E+01  1.420163574E+03
1.842080749E+01  1.421531372E+03
1.843098662E+01  1.421900879E+03
1.844116575E+01  1.421777222E+03
1.845134488E+01  1.420559814E+03
1.846152401E+01  1.419419434E+03
1.847170314E+01  1.417786499E+03
1.848188227E+01  1.416449707E+03
1.849206140E+01  1.415872314E+03
1.850224053E+01  1.416370483E+03
1.851241967E+01  1.415702637E+03
1.852259880E+01  1.414170288E+03
1.853277793E+01  1.412947754E+03
1.854295706E+01  1.412538086E+03
1.855313619E+01  1.413429932E+03
1.856331532E+01  1.413101929E+03
1.857349445E+01  1.411182983E+03
1.858367358E+01  1.409059937E+03
1.859385271E+01  1.408106567E+03
1.860403184E+01  1.407785278E+03
1.861421097E+01  1.407541870E+03
1.862439010E+01  1.406616821E+03
1.863456923E+01  1.405910278E+03
1.864474836E+01  1.405564453E+03
1.865492749E+01  1.405067871E+03
1.866510662E+01  1.405014648E+03
1.867528576E+01  1.405388306E+03
1.868546489E+01  1.405596680E+03
1.869564402E+01  1.404165161E+03
1.870582315E+01  1.403068481E+03
1.871600228E+01  1.404052002E+03
1.872618141E+01  1.403835571E+03
1.873636054E+01  1.401900146E+03
1.874653967E+01  1.401854614E+03
1.875671880E+01  1.403137573E+03
1.876689793E+01  1.403414185E+03
1.877707706E+01  1.403778198E+03
1.878725619E+01  1.403040894E+03
1.879743532E+01  1.401325195E+03
1.880761445E+01  1.400593506E+03
1.881779358E+01  1.401021851E+03
1.882797271E+01  1.401236694E+03
1.883815185E+01  1.402569336E+03
1.884833098E+01  1.403717896E+03
1.885851011E+01  1.402008423E+03
1.886868924E+01  1.399439575E+03
1.887886837E+01  1.396877808E+03
1.888904750E+01  1.396055786E+03
1.889922663E+01  1.395830688E+03
1.890940576E+01  1.395500854E+03
1.891958489E+01  1.394225342E+03
1.892976402E+01  1.393232422E+03
1.893994315E+01  1.393738892E+03
1.895012228E+01  1.393604126E+03
1.896030141E+01  1.393977051E+03
1.897048054E+01  1.395408081E+03
1.898065967E+01  1.397468506E+03
1.899083880E+01  1.397290771E+03
1.900101793E+01  1.396151855E+03
1.901119707E+01  1.395556519E+03
1.902137620E+01  1.394893188E+03
1.903155533E+01  1.397025146E+03
1.904173446E+01  1.398787476E+03
1.905191359E+01  1.399519653E+03
1.906209272E+01  1.399039795E+03
1.907227185E+01  1.398880371E+03
1.908245098E+01  1.398148193E+03
1.909263011E+01  1.397665649E+03
1.910280924E+01  1.398872437E+03
1.911298837E+01  1.399189453E+03
1.912316750E+01  1.398314087E+03
1.913334663E+01  1.398735107E+03
1.914352576E+01  1.399645020E+03
1.915370489E+01  1.399247437E+03
1.916388402E+01  1.398693359E+03
1.917406316E+01  1.397398926E+03
1.918424229E+01  1.396471191E+03
1.919442142E+01  1.395210938E+03
1.920460055E+01  1.392933105E+03
1.921477968E+01  1.390239014E+03
1.922495881E+01  1.388824219E+03
1.923513794E+01  1.389141479E+03
1.924531707E+01  1.389036377E+03
1.925549620E+01  1.389192139E+03
1.926567533E+01  1.388519653E+03
1.927585446E+01  1.386119263E+03
1.928603359E+01  1.383990479E+03
1.929621272E+01  1.383083496E+03
1.930639185E+01  1.381954712E+03
1.931657098E+01  1.381662476E+03
1.932675011E+01  1.382283203E+03
1.933692925E+01  1.381111206E+03
1.934710838E+01  1.380057007E+03
1.935728751E+01  1.380147461E+03
1.936746664E+01  1.379371094E+03
1.937764577E+01  1.376735962E+03
1.938782490E+01  1.375754028E+03
1.939800403E+01  1.375324341E+03
1.940818316E+01  1.374596680E+03
1.941836229E+01  1.373859863E+03
1.942854142E+01  1.371306641E+03
1.943872055E+01  1.369559570E+03
1.944889968E+01  1.369448730E+03
1.945907881E+01  1.369454468E+03
1.946925794E+01  1.368196167E+03
1.947943707E+01  1.366731445E+03
1.948961620E+01  1.366619873E+03
1.949979534E+01  1.366713501E+03
1.950997447E+01  1.365715454E+03
1.952015360E+01  1.364623657E+03
1.953033273E+01  1.365093994E+03
1.954051186E+01  1.367236084E+03
1.955069099E+01  1.369197266E+03
1.956087012E+01  1.368770752E+03
1.957104925E+01  1.366679810E+03
1.958122838E+01  1.365970825E+03
1.959140751E+01  1.368874390E+03
1.960158664E+01  1.371475830E+03
1.961176577E+01  1.371488159E+03
1.962194490E+01  1.370989990E+03
1.963212403E+01  1.370546509E+03
1.964230316E+01  1.371029297E+03
1.965248229E+01  1.371852417E+03
1.966266143E+01  1.372331299E+03
1.967284056E+01  1.371268921E+03
1.968301969E+01  1.368430664E+03
1.969319882E+01  1.366395142E+03
1.970337795E+01  1.365374512E+03
1.971355708E+01  1.364285767E+03
1.972373621E+01  1.361670654E+03
1.973391534E+01  1.361342407E+03
1.974409447E+01  1.362191895E+03
1.975427360E+01  1.362078247E+03
1.976445273E+01  1.361459839E+03
1.977463186E+01  1.360038696E+03
1.978481099E+01  1.359478760E+03
1.979499012E+01  1.358168823E+03
1.980516925E+01  1.357220703E+03
1.981534838E+01  1.356595459E+03
1.982552752E+01  1.357226318E+03
1.983570665E+01  1.358793579E+03
1.984588578E+01  1.358927246E+03
1.985606491E+01  1.357152954E+03
1.986624404E+01  1.354860107E+03
1.987642317E+01  1.353448120E+03
1.988660230E+01  1.350900635E+03
1.989678143E+01  1.350585327E+03
1.990696056E+01  1.351386353E+03
1.991713969E+01  1.351659058E+03
1.992731882E+01  1.350806030E+03
1.993749795E+01  1.349564819E+03
1.994767708E+01  1.349268921E+03
1.995785621E+01  1.350299316E+03
1.996803534E+01  1.352138062E+03
1.997821447E+01  1.352393677E+03
1.998839360E+01  1.350409668E+03
1.999857274E+01  1.348635864E+03
2.000875187E+01  1.348168945E+03
2.001893100E+01  1.347572388E+03
2.002911013E+01  1.347479980E+03
2.003928926E+01  1.349265991E+03
2.004946839E+01  1.348685547E+03
2.005964752E+01  1.346526978E+03
2.006982665E+01  1.343023926E+03
2.008000578E+01  1.339155396E+03
2.009018491E+01  1.338258301E+03
2.010036404E+01  1.339176147E+03
2.011054317E+01  1.338595337E+03
2.012072230E+01  1.338085327E+03
2.013090143E+01  1.339042114E+03
2.014108056E+01  1.341357666E+03
2.015125969E+01  1.343584839E+03
2.016143883E+01  1.344459717E+03
2.017161796E+01  1.344047485E+03
2.018179709E+01  1.341662231E+03
2.019197622E+01  1.340564331E+03
2.020215535E+01  1.338996948E+03
2.021233448E+01  1.336933228E+03
2.022251361E+01  1.337724487E+03
2.023269274E+01  1.337782349E+03
2.024287187E+01  1.337739868E+03
2.025305100E+01  1.338604004E+03
2.026323013E+01  1.338314209E+03
2.027340926E+01  1.337619385E+03
2.028358839E+01  1.337838501E+03
2.029376752E+01  1.338866455E+03
2.030394665E+01  1.339066895E+03
2.031412578E+01  1.338223877E+03
2.032430492E+01  1.336830078E+03
2.033448405E+01  1.335775269E+03
2.034466318E+01  1.335659424E+03
2.035484231E+01  1.336620361E+03
2.036502144E+01  1.337069458E+03
2.037520057E+01  1.335803467E+03
2.038537970E+01  1.333637695E+03
2.039555883E+01  1.331937500E+03
2.040573796E+01  1.332372437E+03
2.041591709E+01  1.333198364E+03
2.042609622E+01  1.332691284E+03
2.043627535E+01  1.330773560E+03
2.044645448E+01  1.328574585E+03
2.045663361E+01  1.327256836E+03
2.046681274E+01  1.326442505E+03
2.047699187E+01  1.325982300E+03
2.048717101E+01  1.325197754E+03
2.049735014E+01  1.325700928E+03
2.050752927E+01  1.326802246E+03
2.051770840E+01  1.327718018E+03
2.052788753E+01  1.327118408E+03
2.053806666E+01  1.325067993E+03
2.054824579E+01  1.323564087E+03
2.055842492E+01  1.323001831E+03
2.056860405E+01  1.324655396E+03
2.057878318E+01  1.326469238E+03
2.058896231E+01  1.326361938E+03
2.059914144E+01  1.324982788E+03
2.060932057E+01  1.324218384E+03
2.061949970E+01  1.324608276E+03
2.062967883E+01  1.326095459E+03
2.063985796E+01  1.328490112E+03
2.065003710E+01  1.328941284E+03
2.066021623E+01  1.329149536E+03
2.067039536E+01  1.330110352E+03
2.068057449E+01  1.329760132E+03
2.069075362E+01  1.328374878E+03
2.070093275E+01  1.326821411E+03
2.071111188E+01  1.325638794E+03
2.072129101E+01  1.322316040E+03
2.073147014E+01  1.320170532E+03
2.074164927E+01  1.318463501E+03
2.075182840E+01  1.317173462E+03
2.076200753E+01  1.317301392E+03
2.077218666E+01  1.317411987E+03
2.078236579E+01  1.316633789E+03
2.079254492E+01  1.315336304E+03
2.080272405E+01  1.314801025E+03
2.081290319E+01  1.314379761E+03
2.082308232E+01  1.313224609E+03
2.083326145E+01  1.312693970E+03
2.084344058E+01  1.312540527E+03
2.085361971E+01  1.311791870E+03
2.086379884E+01  1.310700195E+03
2.087397797E+01  1.310126953E+03
2.088415710E+01  1.309252075E+03
2.089433623E+01  1.307605835E+03
2.090451536E+01  1.305481445E+03
2.091469449E+01  1.304028931E+03
2.092487362E+01  1.304791504E+03
2.093505275E+01  1.305143188E+03
2.094523188E+01  1.305264771E+03
2.095541101E+01  1.305098755E+03
2.096559014E+01  1.304356934E+03
2.097576927E+01  1.302471802E+03
2.098594841E+01  1.301023682E+03
2.099612754E+01  1.301762573E+03
2.100630667E+01  1.302832031E+03
2.101648580E+01  1.303575684E+03
2.102666493E+01  1.302135010E+03
2.103684406E+01  1.300277466E+03
2.104702319E+01  1.298449097E+03
2.105720232E+01  1.296722534E+03
2.106738145E+01  1.296114380E+03
2.107756058E+01  1.295526123E+03
2.108773971E+01  1.295118530E+03
2.109791884E+01  1.294643555E+03
2.110809797E+01  1.295236694E+03
2.111827710E+01  1.296038696E+03
2.112845623E+01  1.296505371E+03
2.113863536E+01  1.296674561E+03
2.114881450E+01  1.296002930E+03
2.115899363E+01  1.293586548E+03
2.116917276E+01  1.291648682E+03
2.117935189E+01  1.292522339E+03
2.118953102E+01  1.293483521E+03
2.119971015E+01  1.293058228E+03
2.120988928E+01  1.293478516E+03
2.122006841E+01  1.294130493E+03
2.123024754E+01  1.294521362E+03
2.124042667E+01  1.294821533E+03
2.125060580E+01  1.293307983E+03
2.126078493E+01  1.290410400E+03
2.127096406E+01  1.290256836E+03
2.128114319E+01  1.290963989E+03
2.129132232E+01  1.291616699E+03
2.130150145E+01  1.292321777E+03
2.131168059E+01  1.291655029E+03
2.132185972E+01  1.289536133E+03
2.133203885E+01  1.288518677E+03
2.134221798E+01  1.288676880E+03
2.135239711E+01  1.288276123E+03
2.136257624E+01  1.287443359E+03
2.137275537E+01  1.285213623E+03
2.138293450E+01  1.282981323E+03
2.139311363E+01  1.283318604E+03
2.140329276E+01  1.282759399E+03
2.141347189E+01  1.282805176E+03
2.142365102E+01  1.283223389E+03
2.143383015E+01  1.283102539E+03
2.144400928E+01  1.283484741E+03
2.145418841E+01  1.283141724E+03
2.146436754E+01  1.282869873E+03
2.147454668E+01  1.283072876E+03
2.148472581E+01  1.282992676E+03
2.149490494E+01  1.282646851E+03
2.150508407E+01  1.281389893E+03
2.151526320E+01  1.280497070E+03
2.152544233E+01  1.280791992E+03
2.153562146E+01  1.281354614E+03
2.154580059E+01  1.281411987E+03
2.155597972E+01  1.281321533E+03
2.156615885E+01  1.280920776E+03
2.157633798E+01  1.280859985E+03
2.158651711E+01  1.279886719E+03
2.159669624E+01  1.277141846E+03
2.160687537E+01  1.276203369E+03
2.161705450E+01  1.276380737E+03
2.162723363E+01  1.275620117E+03
2.163741277E+01  1.275529785E+03
2.164759190E+01  1.275867554E+03
2.165777103E+01  1.275566406E+03
2.166795016E+01  1.276176025E+03
2.167812929E+01  1.277868042E+03
2.168830842E+01  1.278702026E+03
2.169848755E+01  1.278205078E+03
2.170866668E+01  1.277677734E+03
2.171884581E+01  1.276603516E+03
2.172902494E+01  1.274781372E+03
2.173920407E+01  1.273050049E+03
2.174938320E+01  1.271809692E+03
2.175956233E+01  1.272570068E+03
2.176974146E+01  1.274007568E+03
2.177992059E+01  1.273619873E+03
2.179009972E+01  1.272635864E+03
2.180027886E+01  1.271789429E+03
2.181045799E+01  1.270843628E+03
2.182063712E+01  1.269845337E+03
2.183081625E+01  1.270307495E+03
2.184099538E+01  1.271870483E+03
2.185117451E+01  1.270848022E+03
2.186135364E+01  1.269510498E+03
2.187153277E+01  1.269539062E+03
2.188171190E+01  1.269548340E+03
2.189189103E+01  1.270098755E+03
2.190207016E+01  1.269844849E+03
2.191224929E+01  1.268962891E+03
2.192242842E+01  1.267447632E+03
2.193260755E+01  1.267871216E+03
2.194278668E+01  1.267928833E+03
2.195296581E+01  1.266550293E+03
2.196314495E+01  1.266056763E+03
2.197332408E+01  1.265230957E+03
2.198350321E+01  1.265399658E+03
2.199368234E+01  1.265810547E+03
2.200386147E+01  1.265101074E+03
2.201404060E+01  1.264245850E+03
2.202421973E+01  1.264439575E+03
2.203439886E+01  1.265338501E+03
2.204457799E+01  1.265014893E+03
2.205475712E+01  1.264716675E+03
2.206493625E+01  1.263719482E+03
2.207511538E+01  1.262209106E+03
2.208529451E+01  1.262369019E+03
2.209547364E+01  1.263058594E+03
2.210565277E+01  1.263037476E+03
2.211583190E+01  1.261908081E+03
2.212601103E+01  1.260823975E+03
2.213619017E+01  1.260062378E+03
2.214636930E+01  1.259908203E+03
2.215654843E+01  1.260070068E+03
2.216672756E+01  1.259696899E+03
2.217690669E+01  1.259903076E+03
2.218708582E+01  1.259739014E+03
2.219726495E+01  1.259780518E+03
2.220744408E+01  1.260123535E+03
2.221762321E+01  1.259895142E+03
2.222780234E+01  1.259390991E+03
2.223798147E+01  1.258526733E+03
2.224816060E+01  1.257504761E+03
2.225833973E+01  1.256815308E+03
2.226851886E+01  1.256769653E+03
2.227869799E+01  1.256106934E+03
2.228887712E+01  1.255023071E+03
2.229905626E+01  1.256012695E+03
2.230923539E+01  1.257307983E+03
2.231941452E+01  1.257401001E+03
2.232959365E+01  1.257400635E+03
2.233977278E+01  1.256780151E+03
2.234995191E+01  1.255469727E+03
2.236013104E+01  1.255804321E+03
2.237031017E+01  1.257614136E+03
2.238048930E+01  1.257837646E+03
2.239066843E+01  1.256421753E+03
2.240084756E+01  1.254185913E+03
2.241102669E+01  1.252832886E+03
2.242120582E+01  1.253064331E+03
2.243138495E+01  1.251968994E+03
2.244156408E+01  1.251349487E+03
2.245174321E+01  1.251801392E+03
2.246192235E+01  1.251621216E+03
2.247210148E+01  1.250530273E+03
2.248228061E+01  1.249263794E+03
2.249245974E+01  1.249524048E+03
2.250263887E+01  1.250790527E+03
2.251281800E+01  1.251573730E+03
2.252299713E+01  1.250248535E+03
2.253317626E+01  1.248228760E+03
2.254335539E+01  1.247720581E+03
2.255353452E+01  1.246815552E+03
2.256371365E+01  1.246085938E+03
2.257389278E+01  1.245724365E+03
2.258407191E+01  1.245392090E+03
2.259425104E+01  1.243880249E+03
2.260443017E+01  1.243870850E+03
2.261460930E+01  1.245444946E+03
2.262478844E+01  1.244426270E+03
2.263496757E+01  1.242711182E+03
2.264514670E+01  1.242295776E+03
2.265532583E+01  1.242877563E+03
2.266550496E+01  1.242767090E+03
2.267568409E+01  1.242465698E+03
2.268586322E+01  1.242261475E+03
2.269604235E+01  1.240796387E+03
2.270622148E+01  1.240109131E+03
2.271640061E+01  1.240226685E+03
2.272657974E+01  1.240437622E+03
2.273675887E+01  1.240936646E+03
2.274693800E+01  1.240068359E+03
2.275711713E+01  1.239529419E+03
2.276729626E+01  1.239354004E+03
2.277747539E+01  1.239698242E+03
2.278765453E+01  1.240776001E+03
2.279783366E+01  1.241730713E+03
2.280801279E+01  1.241399048E+03
2.281819192E+01  1.239277222E+03
2.282837105E+01  1.238296143E+03
2.283855018E+01  1.237226929E+03
2.284872931E+01  1.236045654E+03
2.285890844E+01  1.236767700E+03
2.286908757E+01  1.236008301E+03
2.287926670E+01  1.234560547E+03
2.288944583E+01  1.232944092E+03
2.289962496E+01  1.231334106E+03
2.290980409E+01  1.231756470E+03
2.291998322E+01  1.233065063E+03
2.293016235E+01  1.233357422E+03
2.294034148E+01  1.232899536E+03
2.295052062E+01  1.233721558E+03
2.296069975E+01  1.233724243E+03
2.297087888E+01  1.233204834E+03
2.298105801E+01  1.233170166E+03
2.299123714E+01  1.233382324E+03
2.300141627E+01  1.234448486E+03
2.301159540E+01  1.234015747E+03
2.302177453E+01  1.233241943E+03
2.303195366E+01  1.233862793E+03
2.304213279E+01  1.234798706E+03
2.305231192E+01  1.234863159E+03
2.306249105E+01  1.233728516E+03
2.307267018E+01  1.233818726E+03
2.308284931E+01  1.234263428E+03
2.309302844E+01  1.233780640E+03
2.310320757E+01  1.232358032E+03
2.311338670E+01  1.230421509E+03
2.312356584E+01  1.229667236E+03
2.313374497E+01  1.230501953E+03
2.314392410E+01  1.231295654E+03
2.315410323E+01  1.231439941E+03
2.316428236E+01  1.231515991E+03
2.317446149E+01  1.231570679E+03
2.318464062E+01  1.231955811E+03
2.319481975E+01  1.232245483E+03
2.320499888E+01  1.230981445E+03
2.321517801E+01  1.229828247E+03
2.322535714E+01  1.230436523E+03
2.323553627E+01  1.230127319E+03
2.324571540E+01  1.228819946E+03
2.325589453E+01  1.227851440E+03
2.326607366E+01  1.226616333E+03
2.327625279E+01  1.225511230E+03
2.328643193E+01  1.224571167E+03
2.329661106E+01  1.223197876E+03
2.330679019E+01  1.222706787E+03
2.331696932E+01  1.223417114E+03
2.332714845E+01  1.224057861E+03
2.333732758E+01  1.224697266E+03
2.334750671E+01  1.225834229E+03
2.335768584E+01  1.225427490E+03
2.336786497E+01  1.225768799E+03
2.337804410E+01  1.227047729E+03
2.338822323E+01  1.227946777E+03
2.339840236E+01  1.228677368E+03
2.340858149E+01  1.230248901E+03
2.341876062E+01  1.232481445E+03
2.342893975E+01  1.236290527E+03
2.343911888E+01  1.240751831E+03
2.344929802E+01  1.244566040E+03
2.345947715E+01  1.247882202E+03
2.346965628E+01  1.251152954E+03
2.347983541E+01  1.253373657E+03
2.349001454E+01  1.255126099E+03
2.350019367E+01  1.257000366E+03
2.351037280E+01  1.256986206E+03
2.352055193E+01  1.254375244E+03
2.353073106E+01  1.251055420E+03
2.354091019E+01  1.248428833E+03
2.355108932E+01  1.245945923E+03
2.356126845E+01  1.242378784E+03
2.357144758E+01  1.238783691E+03
2.358162671E+01  1.235242310E+03
2.359180584E+01  1.233104858E+03
2.360198497E+01  1.231240723E+03
2.361216411E+01  1.229223022E+03
2.362234324E+01  1.227415039E+03
2.363252237E+01  1.224244385E+03
2.364270150E+01  1.222080811E+03
2.365288063E+01  1.221208984E+03
2.366305976E+01  1.220338867E+03
2.367323889E+01  1.220474731E+03
2.368341802E+01  1.220261353E+03
2.369359715E+01  1.218949463E+03
2.370377628E+01  1.217851807E+03
2.371395541E+01  1.217246826E+03
2.372413454E+01  1.216927002E+03
2.373431367E+01  1.216076416E+03
2.374449280E+01  1.215348022E+03
2.375467193E+01  1.212965210E+03
2.376485106E+01  1.210058105E+03
2.377503020E+01  1.207958496E+03
2.378520933E+01  1.205641357E+03
2.379538846E+01  1.204051880E+03
2.380556759E+01  1.203784180E+03
2.381574672E+01  1.203726929E+03
2.382592585E+01  1.203964966E+03
2.383610498E+01  1.203789429E+03
2.384628411E+01  1.202110718E+03
2.385646324E+01  1.200700928E+03
2.386664237E+01  1.200767822E+03
2.387682150E+01  1.200281494E+03
2.388700063E+01  1.201362427E+03
2.389717976E+01  1.202255615E+03
2.390735889E+01  1.202690186E+03
2.391753802E+01  1.203379517E+03
2.392771715E+01  1.202465576E+03
2.393789629E+01  1.201891235E+03
2.394807542E+01  1.202046509E+03
2.395825455E+01  1.202126709E+03
2.396843368E+01  1.201475098E+03
2.397861281E+01  1.200756470E+03
2.398879194E+01  1.201302734E+03
2.399897107E+01  1.201471191E+03
2.400915020E+01  1.202276978E+03
2.401932933E+01  1.203029785E+03
2.402950846E+01  1.201803711E+03
2.403968759E+01  1.201115112E+03
2.404986672E+01  1.202175903E+03
2.406004585E+01  1.202401733E+03
2.407022498E+01  1.202621826E+03
2.408040411E+01  1.202926147E+03
2.409058324E+01  1.202724609E+03
2.410076237E+01  1.203584106E+03
2.411094151E+01  1.204896729E+03
2.412112064E+01  1.204614746E+03
2.413129977E+01  1.203996704E+03
2.414147890E+01  1.203560181E+03
2.415165803E+01  1.203411377E+03
2.416183716E+01  1.204257324E+03
2.417201629E+01  1.203851074E+03
2.418219542E+01  1.202839111E+03
2.419237455E+01  1.201147827E+03
2.420255368E+01  1.199864014E+03
2.421273281E+01  1.199757935E+03
2.422291194E+01  1.199060791E+03
2.423309107E+01  1.198848022E+03
2.424327020E+01  1.198933228E+03
2.425344933E+01  1.198756714E+03
2.426362846E+01  1.198881104E+03
2.427380760E+01  1.197771240E+03
2.428398673E+01  1.195871338E+03
2.429416586E+01  1.194353516E+03
2.430434499E+01  1.193958496E+03
2.431452412E+01  1.193485962E+03
2.432470325E+01  1.192024536E+03
2.433488238E+01  1.190223511E+03
2.434506151E+01  1.188436157E+03
2.435524064E+01  1.187632202E+03
2.436541977E+01  1.187014893E+03
2.437559890E+01  1.185858521E+03
2.438577803E+01  1.184809937E+03
2.439595716E+01  1.184097046E+03
2.440613629E+01  1.183999878E+03
2.441631542E+01  1.183722778E+03
2.442649455E+01  1.182549561E+03
2.443667369E+01  1.181419922E+03
2.444685282E+01  1.179442261E+03
2.445703195E+01  1.177998535E+03
2.446721108E+01  1.178080933E+03
2.447739021E+01  1.178671997E+03
2.448756934E+01  1.179135986E+03
2.449774847E+01  1.178024902E+03
2.450792760E+01  1.176059204E+03
2.451810673E+01  1.173632935E+03
2.452828586E+01  1.171594482E+03
2.453846499E+01  1.171268188E+03
2.454864412E+01  1.171987671E+03
2.455882325E+01  1.171579346E+03
2.456900238E+01  1.169780151E+03
2.457918151E+01  1.168527344E+03
2.458936064E+01  1.167914795E+03
2.459953978E+01  1.166869385E+03
2.460971891E+01  1.165949219E+03
2.461989804E+01  1.166079834E+03
2.463007717E+01  1.166108154E+03
2.464025630E+01  1.165185303E+03
2.465043543E+01  1.163405762E+03
2.466061456E+01  1.162537720E+03
2.467079369E+01  1.163023438E+03
2.468097282E+01  1.162809814E+03
2.469115195E+01  1.161347168E+03
2.470133108E+01  1.159841064E+03
2.471151021E+01  1.159505005E+03
2.472168934E+01  1.159199097E+03
2.473186847E+01  1.158778320E+03
2.474204760E+01  1.158385742E+03
2.475222673E+01  1.157583618E+03
2.476240587E+01  1.157480103E+03
2.477258500E+01  1.157160400E+03
2.478276413E+01  1.155974609E+03
2.479294326E+01  1.155269531E+03
2.480312239E+01  1.154172852E+03
2.481330152E+01  1.154040527E+03
2.482348065E+01  1.154602783E+03
2.483365978E+01  1.153287842E+03
2.484383891E+01  1.151523071E+03
2.485401804E+01  1.150945923E+03
2.486419717E+01  1.150066162E+03
2.487437630E+01  1.149031494E+03
2.488455543E+01  1.148153931E+03
2.489473456E+01  1.148174805E+03
2.490491369E+01  1.148498413E+03
2.491509282E+01  1.148108887E+03
2.492527196E+01  1.147714111E+03
2.493545109E+01  1.148265625E+03
2.494563022E+01  1.147827148E+03
2.495580935E+01  1.146087891E+03
2.496598848E+01  1.145930420E+03
2.497616761E+01  1.146340454E+03
2.498634674E+01  1.146054321E+03
2.499652587E+01  1.146421509E+03
2.500670500E+01  1.145670044E+03
2.501688413E+01  1.143790039E+03
2.502706326E+01  1.143190918E+03
2.503724239E+01  1.143088013E+03
2.504742152E+01  1.144083496E+03
2.505760065E+01  1.144499634E+03
2.506777978E+01  1.143412598E+03
2.507795891E+01  1.142552002E+03
2.508813804E+01  1.141099854E+03
2.509831718E+01  1.139194092E+03
2.510849631E+01  1.138540405E+03
2.511867544E+01  1.138238770E+03
2.512885457E+01  1.137832520E+03
2.513903370E+01  1.137375244E+03
2.514921283E+01  1.138092285E+03
2.515939196E+01  1.138065186E+03
2.516957109E+01  1.137455933E+03
2.517975022E+01  1.138215820E+03
2.518992935E+01  1.138640625E+03
2.520010848E+01  1.137712280E+03
2.521028761E+01  1.136653809E+03
2.522046674E+01  1.135854126E+03
2.523064587E+01  1.134953735E+03
2.524082500E+01  1.134664429E+03
2.525100413E+01  1.133917725E+03
2.526118327E+01  1.131829712E+03
2.527136240E+01  1.130755127E+03
2.528154153E+01  1.130937500E+03
2.529172066E+01  1.130669678E+03
2.530189979E+01  1.128599609E+03
2.531207892E+01  1.127071167E+03
2.532225805E+01  1.127504639E+03
2.533243718E+01  1.128504150E+03
2.534261631E+01  1.128620972E+03
2.535279544E+01  1.127445557E+03
2.536297457E+01  1.126812744E+03
2.537315370E+01  1.126684937E+03
2.538333283E+01  1.126514282E+03
2.539351196E+01  1.125774170E+03
2.540369109E+01  1.124888672E+03
2.541387022E+01  1.124687378E+03
2.542404936E+01  1.124090576E+03
2.543422849E+01  1.122965454E+03
2.544440762E+01  1.122022949E+03
2.545458675E+01  1.121516724E+03
2.546476588E+01  1.121069946E+03
2.547494501E+01  1.120209839E+03
2.548512414E+01  1.119484375E+03
2.549530327E+01  1.119458130E+03
2.550548240E+01  1.119359375E+03
2.551566153E+01  1.119386230E+03
2.552584066E+01  1.119105713E+03
2.553601979E+01  1.118859741E+03
2.554619892E+01  1.118992920E+03
2.555637805E+01  1.119967163E+03
2.556655718E+01  1.119888306E+03
2.557673631E+01  1.117906494E+03
2.558691545E+01  1.115471680E+03
2.559709458E+01  1.113814087E+03
2.560727371E+01  1.112951538E+03
2.561745284E+01  1.113317627E+03
2.562763197E+01  1.114423340E+03
2.563781110E+01  1.114563721E+03
2.564799023E+01  1.114351685E+03
2.565816936E+01  1.114396240E+03
2.566834849E+01  1.113815918E+03
2.567852762E+01  1.112155762E+03
2.568870675E+01  1.112046997E+03
2.569888588E+01  1.113004883E+03
2.570906501E+01  1.112576050E+03
2.571924414E+01  1.111412964E+03
2.572942327E+01  1.110489136E+03
2.573960240E+01  1.109909058E+03
2.574978154E+01  1.109727539E+03
2.575996067E+01  1.108986084E+03
2.577013980E+01  1.108140869E+03
2.578031893E+01  1.107228516E+03
2.579049806E+01  1.107710571E+03
2.580067719E+01  1.108827148E+03
2.581085632E+01  1.107555420E+03
2.582103545E+01  1.105786987E+03
2.583121458E+01  1.105684814E+03
2.584139371E+01  1.105810913E+03
2.585157284E+01  1.105671875E+03
2.586175197E+01  1.104900269E+03
2.587193110E+01  1.103900757E+03
2.588211023E+01  1.103641724E+03
2.589228936E+01  1.103087891E+03
2.590246849E+01  1.102102173E+03
2.591264763E+01  1.102789185E+03
2.592282676E+01  1.104824585E+03
2.593300589E+01  1.105256714E+03
2.594318502E+01  1.104860107E+03
2.595336415E+01  1.104149292E+03
2.596354328E+01  1.102257935E+03
2.597372241E+01  1.101223755E+03
2.598390154E+01  1.101306274E+03
2.599408067E+01  1.101030273E+03
2.600425980E+01  1.100258667E+03
2.601443893E+01  1.099067627E+03
2.602461806E+01  1.098604126E+03
2.603479719E+01  1.098396606E+03
2.604497632E+01  1.097729858E+03
2.605515545E+01  1.098129028E+03
2.606533458E+01  1.097635376E+03
2.607551372E+01  1.096072754E+03
2.608569285E+01  1.095119995E+03
2.609587198E+01  1.093916382E+03
2.610605111E+01  1.093943481E+03
2.611623024E+01  1.095358887E+03
2.612640937E+01  1.095662964E+03
2.613658850E+01  1.094671021E+03
2.614676763E+01  1.094268799E+03
2.615694676E+01  1.094264526E+03
2.616712589E+01  1.093779907E+03
2.617730502E+01  1.092351196E+03
2.618748415E+01  1.091932739E+03
2.619766328E+01  1.091940552E+03
2.620784241E+01  1.091958618E+03
2.621802154E+01  1.092121094E+03
2.622820067E+01  1.092207886E+03
2.623837980E+01  1.091959473E+03
2.624855894E+01  1.091323486E+03
2.625873807E+01  1.090751465E+03
2.626891720E+01  1.089988281E+03
2.627909633E+01  1.089095215E+03
2.628927546E+01  1.089775391E+03
2.629945459E+01  1.090516846E+03
2.630963372E+01  1.089325928E+03
2.631981285E+01  1.088020874E+03
2.632999198E+01  1.087034912E+03
2.634017111E+01  1.086517090E+03
2.635035024E+01  1.086240967E+03
2.636052937E+01  1.085212891E+03
2.637070850E+01  1.084679810E+03
2.638088763E+01  1.085160278E+03
2.639106676E+01  1.084987671E+03
2.640124589E+01  1.085988037E+03
2.641142503E+01  1.087008057E+03
2.642160416E+01  1.086028931E+03
2.643178329E+01  1.084432617E+03
2.644196242E+01  1.083291138E+03
2.645214155E+01  1.083155762E+03
2.646232068E+01  1.083734009E+03
2.647249981E+01  1.083244751E+03
2.648267894E+01  1.081741333E+03
2.649285807E+01  1.081380615E+03
2.650303720E+01  1.082178345E+03
2.651321633E+01  1.081987305E+03
2.652339546E+01  1.080918579E+03
2.653357459E+01  1.080145996E+03
2.654375372E+01  1.080717163E+03
2.655393285E+01  1.080167358E+03
2.656411198E+01  1.079383911E+03
2.657429112E+01  1.078984497E+03
2.658447025E+01  1.078610718E+03
2.659464938E+01  1.078035522E+03
2.660482851E+01  1.077135254E+03
2.661500764E+01  1.075926147E+03
2.662518677E+01  1.075772461E+03
2.663536590E+01  1.077672485E+03
2.664554503E+01  1.078899780E+03
2.665572416E+01  1.078420532E+03
2.666590329E+01  1.077199585E+03
2.667608242E+01  1.076163940E+03
2.668626155E+01  1.075815430E+03
2.669644068E+01  1.075371338E+03
2.670661981E+01  1.074598022E+03
2.671679894E+01  1.073937500E+03
2.672697807E+01  1.074308228E+03
2.673715721E+01  1.074893311E+03
2.674733634E+01  1.075236328E+03
2.675751547E+01  1.075572998E+03
2.676769460E+01  1.075680786E+03
2.677787373E+01  1.075040039E+03
2.678805286E+01  1.073216187E+03
2.679823199E+01  1.072393188E+03
2.680841112E+01  1.071937622E+03
2.681859025E+01  1.071638306E+03
2.682876938E+01  1.072361084E+03
2.683894851E+01  1.073167236E+03
2.684912764E+01  1.072169678E+03
2.685930677E+01  1.070348755E+03
2.686948590E+01  1.069734009E+03
2.687966503E+01  1.070131348E+03
2.688984416E+01  1.069910034E+03
2.690002330E+01  1.068788940E+03
2.691020243E+01  1.067570923E+03
2.692038156E+01  1.066861450E+03
2.693056069E+01  1.067055420E+03
2.694073982E+01  1.067072266E+03
2.695091895E+01  1.066535034E+03
2.696109808E+01  1.067253296E+03
2.697127721E+01  1.068259399E+03
2.698145634E+01  1.068815430E+03
2.699163547E+01  1.068296265E+03
2.700181460E+01  1.066801025E+03
2.701199373E+01  1.066252197E+03
2.702217286E+01  1.066279175E+03
2.703235199E+01  1.067015625E+03
2.704253112E+01  1.067530762E+03
2.705271025E+01  1.067864136E+03
2.706288939E+01  1.067680420E+03
2.707306852E+01  1.066449829E+03
2.708324765E+01  1.065770508E+03
2.709342678E+01  1.066148193E+03
2.710360591E+01  1.067453125E+03
2.711378504E+01  1.067254150E+03
2.712396417E+01  1.067328491E+03
2.713414330E+01  1.068051758E+03
2.714432243E+01  1.067337036E+03
2.715450156E+01  1.066053955E+03
2.716468069E+01  1.065964844E+03
2.717485982E+01  1.066503906E+03
2.718503895E+01  1.067032104E+03
2.719521808E+01  1.067639771E+03
2.720539721E+01  1.068703491E+03
2.721557634E+01  1.069650024E+03
2.722575547E+01  1.069186523E+03
2.723593461E+01  1.069042358E+03
2.724611374E+01  1.069630981E+03
2.725629287E+01  1.071001709E+03
2.726647200E+01  1.072162598E+03
2.727665113E+01  1.072570557E+03
2.728683026E+01  1.072940674E+03
2.729700939E+01  1.073312622E+03
2.730718852E+01  1.073720337E+03
2.731736765E+01  1.074729248E+03
2.732754678E+01  1.076494141E+03
2.733772591E+01  1.078291870E+03
2.734790504E+01  1.079074341E+03
2.735808417E+01  1.080035889E+03
2.736826330E+01  1.081670532E+03
2.737844243E+01  1.081462891E+03
2.738862156E+01  1.082448730E+03
2.739880070E+01  1.085013916E+03
2.740897983E+01  1.086752197E+03
2.741915896E+01  1.087732422E+03
2.742933809E+01  1.087733398E+03
2.743951722E+01  1.088848755E+03
2.744969635E+01  1.092386108E+03
2.745987548E+01  1.095692871E+03
2.747005461E+01  1.097462769E+03
2.748023374E+01  1.098609009E+03
2.749041287E+01  1.099889526E+03
2.750059200E+01  1.100953247E+03
2.751077113E+01  1.101447144E+03
2.752095026E+01  1.101215698E+03
2.753112939E+01  1.101628906E+03
2.754130852E+01  1.102227905E+03
2.755148765E+01  1.102967163E+03
2.756166679E+01  1.103024170E+03
2.757184592E+01  1.101446533E+03
2.758202505E+01  1.099416260E+03
2.759220418E+01  1.098369995E+03
2.760238331E+01  1.098303711E+03
2.761256244E+01  1.097284790E+03
2.762274157E+01  1.095987549E+03
2.763292070E+01  1.094941895E+03
2.764309983E+01  1.092861450E+03
2.765327896E+01  1.090253296E+03
2.766345809E+01  1.088780640E+03
2.767363722E+01  1.088743774E+03
2.768381635E+01  1.086678467E+03
2.769399548E+01  1.083679321E+03
2.770417461E+01  1.082189575E+03
2.771435374E+01  1.079756226E+03
2.772453288E+01  1.077113281E+03
2.773471201E+01  1.076123413E+03
2.774489114E+01  1.074669678E+03
2.775507027E+01  1.072829712E+03
2.776524940E+01  1.071769897E+03
2.777542853E+01  1.069799683E+03
2.778560766E+01  1.068065186E+03
2.779578679E+01  1.067087036E+03
2.780596592E+01  1.065622192E+03
2.781614505E+01  1.063368530E+03
2.782632418E+01  1.061955933E+03
2.783650331E+01  1.060428955E+03
2.784668244E+01  1.058461792E+03
2.785686157E+01  1.056561401E+03
2.786704070E+01  1.054576294E+03
2.787721983E+01  1.052656616E+03
2.788739897E+01  1.050727295E+03
2.789757810E+01  1.049515747E+03
2.790775723E+01  1.048655151E+03
2.791793636E+01  1.048120117E+03
2.792811549E+01  1.047742432E+03
2.793829462E+01  1.046011963E+03
2.794847375E+01  1.043164917E+03
2.795865288E+01  1.041708740E+03
2.796883201E+01  1.040527588E+03
2.797901114E+01  1.038921997E+03
2.798919027E+01  1.037099121E+03
2.799936940E+01  1.036428589E+03
2.800954853E+01  1.036387451E+03
2.801972766E+01  1.035274292E+03
2.802990679E+01  1.034689087E+03
2.804008592E+01  1.035619019E+03
2.805026506E+01  1.035007568E+03
2.806044419E+01  1.032925415E+03
2.807062332E+01  1.031431396E+03
2.808080245E+01  1.030432739E+03
2.809098158E+01  1.030081421E+03
2.810116071E+01  1.028392822E+03
2.811133984E+01  1.026953979E+03
2.812151897E+01  1.027256714E+03
2.813169810E+01  1.026778076E+03
2.814187723E+01  1.025122314E+03
2.815205636E+01  1.024684937E+03
2.816223549E+01  1.024097290E+03
2.817241462E+01  1.022694763E+03
2.818259375E+01  1.023558838E+03
2.819277288E+01  1.024963867E+03
2.820295201E+01  1.024361572E+03
2.821313114E+01  1.022742798E+03
2.822331028E+01  1.021971375E+03
2.823348941E+01  1.022639893E+03
2.824366854E+01  1.023459473E+03
2.825384767E+01  1.022429443E+03
2.826402680E+01  1.020433960E+03
2.827420593E+01  1.019763000E+03
2.828438506E+01  1.019711548E+03
2.829456419E+01  1.019476562E+03
2.830474332E+01  1.019046509E+03
2.831492245E+01  1.018510559E+03
2.832510158E+01  1.018343994E+03
2.833528071E+01  1.017472168E+03
2.834545984E+01  1.015783447E+03
2.835563897E+01  1.014128723E+03
2.836581810E+01  1.013577637E+03
2.837599723E+01  1.014174316E+03
2.838617637E+01  1.014212463E+03
2.839635550E+01  1.013433228E+03
2.840653463E+01  1.012437805E+03
2.841671376E+01  1.012337219E+03
2.842689289E+01  1.012692627E+03
2.843707202E+01  1.012009155E+03
2.844725115E+01  1.009761841E+03
2.845743028E+01  1.008340027E+03
2.846760941E+01  1.008317444E+03
2.847778854E+01  1.008525330E+03
2.848796767E+01  1.009356384E+03
2.849814680E+01  1.009276733E+03
2.850832593E+01  1.008088257E+03
2.851850506E+01  1.008223022E+03
2.852868419E+01  1.008077515E+03
2.853886332E+01  1.006234070E+03
2.854904246E+01  1.005059509E+03
2.855922159E+01  1.005412598E+03
2.856940072E+01  1.006371887E+03
2.857957985E+01  1.006937561E+03
2.858975898E+01  1.005943848E+03
2.859993811E+01  1.004224365E+03
2.861011724E+01  1.002080017E+03
2.862029637E+01  1.001007202E+03
2.863047550E+01  1.001329956E+03
2.864065463E+01  1.001559265E+03
2.865083376E+01  1.000076477E+03
2.866101289E+01  9.987513428E+02
2.867119202E+01  9.991289673E+02
2.868137115E+01  9.995122681E+02
2.869155028E+01  9.999317627E+02
2.870172941E+01  1.000737122E+03
2.871190855E+01  1.000800049E+03
2.872208768E+01  9.999013672E+02
2.873226681E+01  9.987649536E+02
2.874244594E+01  9.987420044E+02
2.875262507E+01  9.987659302E+02
2.876280420E+01  9.979044800E+02
2.877298333E+01  9.968975220E+02
2.878316246E+01  9.955191650E+02
2.879334159E+01  9.946089478E+02
2.880352072E+01  9.953532715E+02
2.881369985E+01  9.960246582E+02
2.882387898E+01  9.954968872E+02
2.883405811E+01  9.951010132E+02
2.884423724E+01  9.936771240E+02
2.885441637E+01  9.916213379E+02
2.886459550E+01  9.896211548E+02
2.887477464E+01  9.883243408E+02
2.888495377E+01  9.884123535E+02
2.889513290E+01  9.879586792E+02
2.890531203E+01  9.863298340E+02
2.891549116E+01  9.851195068E+02
2.892567029E+01  9.842018433E+02
2.893584942E+01  9.827482300E+02
2.894602855E+01  9.810311890E+02
2.895620768E+01  9.800878296E+02
2.896638681E+01  9.781088867E+02
2.897656594E+01  9.750411987E+02
2.898674507E+01  9.725925903E+02
2.899692420E+01  9.708271484E+02
2.900710333E+01  9.675554810E+02
2.901728246E+01  9.647874756E+02
2.902746159E+01  9.624210815E+02
2.903764073E+01  9.595632324E+02
2.904781986E+01  9.570755615E+02
2.905799899E+01  9.548547974E+02
2.906817812E+01  9.531085815E+02
2.907835725E+01  9.521034546E+02
2.908853638E+01  9.498979492E+02
2.909871551E+01  9.455655518E+02
2.910889464E+01  9.421437988E+02
2.911907377E+01  9.394621582E+02
2.912925290E+01  9.362541504E+02
2.913943203E+01  9.339732666E+02
2.914961116E+01  9.331289673E+02
2.915979029E+01  9.309230347E+02
2.916996942E+01  9.261826172E+02
2.918014855E+01  9.217471924E+02
2.919032768E+01  9.186312866E+02
2.920050681E+01  9.153892212E+02
2.921068595E+01  9.119589844E+02
2.922086508E+01  9.079969482E+02
2.923104421E+01  9.040093994E+02
2.924122334E+01  9.007526245E+02
2.925140247E+01  8.974035645E+02
2.926158160E+01  8.949284668E+02
2.927176073E+01  8.933311768E+02
2.928193986E+01  8.902561646E+02
2.929211899E+01  8.863764038E+02
2.930229812E+01  8.826463623E+02
2.931247725E+01  8.794711304E+02
2.932265638E+01  8.762965088E+02
2.933283551E+01  8.726781006E+02
2.934301464E+01  8.692730103E+02
2.935319377E+01  8.661917114E+02
2.936337290E+01  8.629733276E+02
2.937355204E+01  8.611542969E+02
2.938373117E+01  8.585234375E+02
2.939391030E+01  8.541394043E+02
2.940408943E+01  8.497482910E+02
2.941426856E+01  8.459597168E+02
2.942444769E+01  8.429899292E+02
2.943462682E+01  8.400227661E+02
2.944480595E+01  8.365037231E+02
2.945498508E+01  8.329260864E+02
2.946516421E+01  8.288992920E+02
2.947534334E+01  8.253220215E+02
2.948552247E+01  8.228566895E+02
2.949570160E+01  8.198643188E+02
2.950588073E+01  8.153355103E+02
2.951605986E+01  8.112766724E+02
2.952623899E+01  8.080639648E+02
2.953641813E+01  8.059032593E+02
2.954659726E+01  8.041682129E+02
2.955677639E+01  8.008657227E+02
2.956695552E+01  7.971006470E+02
2.957713465E+01  7.934388428E+02
2.958731378E+01  7.894768677E+02
2.959749291E+01  7.866168213E+02
2.960767204E+01  7.839318237E+02
2.961785117E+01  7.797587891E+02
2.962803030E+01  7.755054321E+02
2.963820943E+01  7.727207031E+02
2.964838856E+01  7.691427002E+02
2.965856769E+01  7.662458496E+02
2.966874682E+01  7.641943970E+02
2.967892595E+01  7.616121826E+02
2.968910508E+01  7.595735474E+02
2.969928422E+01  7.569010010E+02
2.970946335E+01  7.539631958E+02
2.971964248E+01  7.520629883E+02
2.972982161E+01  7.498533325E+02
2.974000074E+01  7.465004272E+02
2.975017987E+01  7.441730347E+02
2.976035900E+01  7.425979614E+02
2.977053813E+01  7.408026733E+02
2.978071726E+01  7.386123047E+02
2.979089639E+01  7.363921509E+02
2.980107552E+01  7.341469727E+02
2.981125465E+01  7.311604614E+02
2.982143378E+01  7.287724609E+02
2.983161291E+01  7.266273193E+02
2.984179204E+01  7.247980957E+02
2.985197117E+01  7.230706177E+02
2.986215031E+01  7.205963135E+02
2.987232944E+01  7.187206421E+02
2.988250857E+01  7.168114624E+02
2.989268770E+01  7.143919067E+02
2.990286683E+01  7.126989746E+02
2.991304596E+01  7.115616455E+02
2.992322509E+01  7.100906372E+02
2.993340422E+01  7.074882202E+02
2.994358335E+01  7.054033203E+02
2.995376248E+01  7.036134033E+02
2.996394161E+01  7.017774658E+02
2.997412074E+01  6.998060913E+02
2.998429987E+01  6.981427002E+02
2.999447900E+01  6.962261963E+02
3.000465813E+01  6.938999023E+02
3.001483726E+01  6.925863647E+02
3.002501640E+01  6.899055786E+02
3.003519553E+01  6.862006836E+02
3.004537466E+01  6.850289307E+02
3.005555379E+01  6.853908691E+02
3.006573292E+01  6.852243042E+02
3.007591205E+01  6.853795166E+02
3.008609118E+01  6.845227661E+02
3.009627031E+01  6.826321411E+02
3.010644944E+01  6.817341919E+02
3.011662857E+01  6.814743652E+02
3.012680770E+01  6.818965454E+02
3.013698683E+01  6.820213623E+02
3.014716596E+01  6.825036621E+02
3.015734509E+01  6.826799927E+02
3.016752422E+01  6.823547974E+02
3.017770335E+01  6.820697632E+02
3.018788249E+01  6.814467773E+02
3.019806162E+01  6.813799438E+02
3.020824075E+01  6.823010864E+02
3.021841988E+01  6.819291992E+02
3.022859901E+01  6.815386963E+02
3.023877814E+01  6.815209961E+02
3.024895727E+01  6.814056396E+02
3.025913640E+01  6.812785034E+02
3.026931553E+01  6.803240967E+02
3.027949466E+01  6.788645630E+02
3.028967379E+01  6.784195557E+02
3.029985292E+01  6.784467163E+02
3.031003205E+01  6.774854126E+02
3.032021118E+01  6.765766602E+02
3.033039031E+01  6.768796997E+02
3.034056944E+01  6.775977173E+02
3.035074857E+01  6.783761597E+02
3.036092771E+01  6.791845093E+02
3.037110684E+01  6.787317505E+02
3.038128597E+01  6.773208008E+02
3.039146510E+01  6.769113770E+02
3.040164423E+01  6.767940674E+02
3.041182336E+01  6.761557617E+02
3.042200249E+01  6.750179443E+02
3.043218162E+01  6.744746094E+02
3.044236075E+01  6.739012451E+02
3.045253988E+01  6.739968262E+02
3.046271901E+01  6.735827026E+02
3.047289814E+01  6.733517456E+02
3.048307727E+01  6.740223999E+02
3.049325640E+01  6.743789673E+02
3.050343553E+01  6.735995483E+02
3.051361466E+01  6.729812622E+02
3.052379380E+01  6.726182861E+02
3.053397293E+01  6.717548828E+02
3.054415206E+01  6.717785034E+02
3.055433119E+01  6.722282715E+02
3.056451032E+01  6.715859985E+02
3.057468945E+01  6.699340820E+02
3.058486858E+01  6.690957031E+02
3.059504771E+01  6.693582764E+02
3.060522684E+01  6.691890869E+02
3.061540597E+01  6.695396118E+02
3.062558510E+01  6.701458130E+02
3.063576423E+01  6.697346802E+02
3.064594336E+01  6.692552490E+02
3.065612249E+01  6.694688110E+02
3.066630162E+01  6.693630371E+02
3.067648075E+01  6.686520996E+02
3.068665989E+01  6.683119507E+02
3.069683902E+01  6.691328735E+02
3.070701815E+01  6.688230591E+02
3.071719728E+01  6.679409790E+02
3.072737641E+01  6.677144165E+02
3.073755554E+01  6.673179932E+02
3.074773467E+01  6.679574585E+02
3.075791380E+01  6.674772339E+02
3.076809293E+01  6.656578979E+02
3.077827206E+01  6.644594116E+02
3.078845119E+01  6.635653687E+02
3.079863032E+01  6.628167114E+02
3.080880945E+01  6.621017456E+02
3.081898858E+01  6.622843018E+02
3.082916771E+01  6.621391602E+02
3.083934684E+01  6.619858398E+02
3.084952598E+01  6.654970703E+02
3.085970511E+01  6.747698975E+02
3.086988424E+01  6.805524292E+02
3.088006337E+01  6.816842651E+02
3.089024250E+01  6.831961670E+02
3.090042163E+01  6.850505981E+02
3.091060076E+01  6.863943481E+02
3.092077989E+01  6.880382690E+02
3.093095902E+01  6.895439453E+02
3.094113815E+01  6.912070312E+02
3.095131728E+01  6.921100464E+02
3.096149641E+01  6.921671143E+02
3.097167554E+01  6.920183105E+02
3.098185467E+01  6.919754028E+02
3.099203380E+01  6.923948364E+02
3.100221293E+01  6.932498779E+02
3.101239207E+01  6.950289917E+02
3.102257120E+01  6.968982544E+02
3.103275033E+01  6.973579712E+02
3.104292946E+01  6.970839844E+02
3.105310859E+01  6.972681274E+02
3.106328772E+01  6.973652344E+02
3.107346685E+01  6.973204956E+02
3.108364598E+01  6.982365723E+02
3.109382511E+01  6.984959106E+02
3.110400424E+01  6.985003052E+02
3.111418337E+01  6.992938843E+02
3.112436250E+01  6.996530762E+02
3.113454163E+01  6.986662598E+02
3.114472076E+01  6.974866333E+02
3.115489989E+01  6.988686523E+02
3.116507902E+01  7.008094482E+02
3.117525816E+01  7.020758667E+02
3.118543729E+01  7.024207764E+02
3.119561642E+01  7.023229370E+02
3.120579555E+01  7.031791382E+02
3.121597468E+01  7.048154907E+02
3.122615381E+01  7.056072388E+02
3.123633294E+01  7.051023560E+02
3.124651207E+01  7.043812256E+02
3.125669120E+01  7.039179688E+02
3.126687033E+01  7.043004150E+02
3.127704946E+01  7.048536987E+02
3.128722859E+01  7.049627686E+02
3.129740772E+01  7.039411011E+02
3.130758685E+01  7.012250366E+02
3.131776598E+01  6.999680786E+02
3.132794511E+01  6.997223511E+02
3.133812424E+01  6.997785645E+02
3.134830338E+01  7.005713501E+02
3.135848251E+01  7.012357178E+02
3.136866164E+01  7.025369873E+02
3.137884077E+01  7.035521240E+02
3.138901990E+01  7.031972046E+02
3.139919903E+01  7.021463013E+02
3.140937816E+01  7.018767090E+02
3.141955729E+01  7.020256958E+02
3.142973642E+01  7.015806274E+02
3.143991555E+01  7.015621948E+02
3.145009468E+01  7.025982666E+02
3.146027381E+01  7.036788330E+02
3.147045294E+01  7.029859009E+02
3.148063207E+01  7.019026489E+02
3.149081120E+01  7.011708984E+02
3.150099033E+01  7.007788086E+02
3.151116947E+01  7.025687256E+02
3.152134860E+01  7.035150757E+02
3.153152773E+01  7.024330444E+02
3.154170686E+01  7.020853271E+02
3.155188599E+01  7.021089478E+02
3.156206512E+01  7.016289062E+02
3.157224425E+01  6.997094116E+02
3.158242338E+01  6.987359009E+02
3.159260251E+01  7.009447632E+02
3.160278164E+01  7.013220825E+02
3.161296077E+01  6.989622803E+02
3.162313990E+01  6.988448486E+02
3.163331903E+01  7.004760742E+02
3.164349816E+01  7.011102295E+02
3.165367729E+01  7.008104858E+02
3.166385642E+01  7.006469727E+02
3.167403556E+01  7.005203247E+02
3.168421469E+01  6.991657715E+02
3.169439382E+01  6.979380493E+02
3.170457295E+01  6.989065552E+02
3.171475208E+01  7.000687866E+02
3.172493121E+01  6.994811401E+02
3.173511034E+01  6.974545898E+02
3.174528947E+01  6.956836548E+02
3.175546860E+01  6.965119019E+02
3.176564773E+01  6.985349731E+02
3.177582686E+01  6.998551636E+02
3.178600599E+01  6.999620361E+02
3.179618512E+01  6.990626831E+02
3.180636425E+01  6.971553955E+02
3.181654338E+01  6.965514526E+02
3.182672251E+01  6.975352173E+02
3.183690165E+01  6.981692505E+02
3.184708078E+01  6.973072510E+02
3.185725991E+01  6.962699585E+02
3.186743904E+01  6.961832886E+02
3.187761817E+01  6.968534546E+02
3.188779730E+01  6.956727905E+02
3.189797643E+01  6.934432373E+02
3.190815556E+01  6.935179443E+02
3.191833469E+01  6.943461914E+02
3.192851382E+01  6.927157593E+02
3.193869295E+01  6.911854858E+02
3.194887208E+01  6.911817627E+02
3.195905121E+01  6.908817139E+02
3.196923034E+01  6.907260132E+02
3.197940947E+01  6.905433960E+02
3.198958860E+01  6.901427002E+02
3.199976774E+01  6.898791504E+02
3.200994687E+01  6.904579468E+02
3.202012600E+01  6.888616943E+02
3.203030513E+01  6.868021240E+02
3.204048426E+01  6.873429565E+02
3.205066339E+01  6.874498291E+02
3.206084252E+01  6.862602539E+02
3.207102165E+01  6.858462524E+02
3.208120078E+01  6.864008789E+02
3.209137991E+01  6.848985596E+02
3.210155904E+01  6.845116577E+02
3.211173817E+01  6.850603638E+02
3.212191730E+01  6.848097534E+02
3.213209643E+01  6.843930054E+02
3.214227556E+01  6.841396484E+02
3.215245469E+01  6.842622070E+02
3.216263383E+01  6.848112183E+02
3.217281296E+01  6.835305176E+02
3.218299209E+01  6.819149170E+02
3.219317122E+01  6.808936768E+02
3.220335035E+01  6.810123901E+02
3.221352948E+01  6.821332397E+02
3.222370861E+01  6.834700928E+02
3.223388774E+01  6.910083618E+02
3.224406687E+01  7.131284790E+02
3.225424600E+01  7.364005127E+02
3.226442513E+01  7.481039429E+02
3.227460426E+01  7.523196411E+02
3.228478339E+01  7.530825806E+02
3.229496252E+01  7.550076904E+02
3.230514165E+01  7.576510620E+02
3.231532078E+01  7.596658325E+02
3.232549991E+01  7.623890991E+02
3.233567905E+01  7.655816650E+02
3.234585818E+01  7.662625122E+02
3.235603731E+01  7.664962769E+02
3.236621644E+01  7.675761719E+02
3.237639557E+01  7.689566650E+02
3.238657470E+01  7.721619873E+02
3.239675383E+01  7.758610840E+02
3.240693296E+01  7.755895996E+02
3.241711209E+01  7.739768677E+02
3.242729122E+01  7.754382324E+02
3.243747035E+01  7.759390259E+02
3.244764948E+01  7.742887573E+02
3.245782861E+01  7.737962036E+02
3.246800774E+01  7.753537598E+02
3.247818687E+01  7.752167358E+02
3.248836600E+01  7.756004028E+02
3.249854514E+01  7.753796387E+02
3.250872427E+01  7.743223877E+02
3.251890340E+01  7.748887329E+02
3.252908253E+01  7.788332520E+02
3.253926166E+01  7.795061646E+02
3.254944079E+01  7.773216553E+02
3.255961992E+01  7.771237183E+02
3.256979905E+01  7.781040649E+02
3.257997818E+01  7.783647461E+02
3.259015731E+01  7.771910400E+02
3.260033644E+01  7.715506592E+02
3.261051557E+01  7.672646484E+02
3.262069470E+01  7.694308472E+02
3.263087383E+01  7.703670654E+02
3.264105296E+01  7.687612305E+02
3.265123209E+01  7.681704102E+02
3.266141123E+01  7.664063721E+02
3.267159036E+01  7.649161987E+02
3.268176949E+01  7.656396484E+02
3.269194862E+01  7.633246460E+02
3.270212775E+01  7.597899780E+02
3.271230688E+01  7.582678833E+02
3.272248601E+01  7.561671753E+02
3.273266514E+01  7.535580444E+02
3.274284427E+01  7.527117310E+02
3.275302340E+01  7.546413574E+02
3.276320253E+01  7.576135254E+02
3.277338166E+01  7.577308350E+02
3.278356079E+01  7.572869263E+02
3.279373992E+01  7.568061523E+02
3.280391905E+01  7.576547852E+02
3.281409818E+01  7.558816528E+02
3.282427732E+01  7.482895508E+02
3.283445645E+01  7.418594360E+02
3.284463558E+01  7.390626831E+02
3.285481471E+01  7.353075562E+02
3.286499384E+01  7.336456909E+02
3.287517297E+01  7.327564087E+02
3.288535210E+01  7.322971191E+02
3.289553123E+01  7.326169434E+02
3.290571036E+01  7.300453491E+02
3.291588949E+01  7.286185913E+02
3.292606862E+01  7.276380615E+02
3.293624775E+01  7.241731567E+02
3.294642688E+01  7.180287476E+02
3.295660601E+01  7.133460083E+02
3.296678514E+01  7.114472656E+02
3.297696427E+01  7.086132812E+02
3.298714341E+01  7.032625732E+02
3.299732254E+01  6.989028320E+02
3.300750167E+01  6.927064819E+02
3.301768080E+01  6.891363525E+02
3.302785993E+01  6.905206299E+02
3.303803906E+01  6.877600708E+02
3.304821819E+01  6.808646240E+02
3.305839732E+01  6.756027832E+02
3.306857645E+01  6.744929199E+02
3.307875558E+01  6.734080811E+02
3.308893471E+01  6.662178955E+02
3.309911384E+01  6.589765015E+02
3.310929297E+01  6.529837646E+02
3.311947210E+01  6.498780518E+02
3.312965123E+01  6.460593872E+02
3.313983036E+01  6.407285767E+02
3.315000950E+01  6.362525024E+02
3.316018863E+01  6.326138306E+02
3.317036776E+01  6.298457642E+02
3.318054689E+01  6.250195923E+02
3.319072602E+01  6.168767700E+02
3.320090515E+01  6.104509888E+02
3.321108428E+01  6.056744995E+02
3.322126341E+01  6.008079834E+02
3.323144254E+01  5.963026733E+02
3.324162167E+01  5.947221680E+02
3.325180080E+01  5.984431152E+02
3.326197993E+01  5.991467896E+02
3.327215906E+01  5.938374023E+02
3.328233819E+01  5.885341187E+02
3.329251732E+01  5.885880737E+02
3.330269645E+01  5.868789673E+02
3.331287558E+01  5.821394043E+02
3.332305472E+01  5.792785034E+02
3.333323385E+01  5.802467651E+02
3.334341298E+01  5.851134644E+02
3.335359211E+01  5.920740356E+02
3.336377124E+01  5.912952271E+02
3.337395037E+01  5.822619019E+02
3.338412950E+01  5.781264648E+02
3.339430863E+01  5.809619141E+02
3.340448776E+01  5.835036621E+02
3.341466689E+01  5.875353394E+02
3.342484602E+01  5.931193848E+02
3.343502515E+01  5.872211304E+02
3.344520428E+01  5.732996216E+02
3.345538341E+01  5.711051025E+02
3.346556254E+01  5.769576416E+02
3.347574167E+01  5.778755493E+02
3.348592081E+01  5.714678955E+02
3.349609994E+01  5.689484253E+02
3.350627907E+01  5.733115845E+02
3.351645820E+01  5.660346680E+02
3.352663733E+01  5.635512085E+02
3.353681646E+01  5.615355835E+02
3.354699559E+01  5.543095093E+02
3.355717472E+01  5.602195435E+02
3.356735385E+01  5.643072510E+02
3.357753298E+01  5.593020630E+02
3.358771211E+01  5.444539795E+02
3.359789124E+01  5.434508667E+02
3.360807037E+01  5.507736816E+02
3.361824950E+01  5.501980591E+02
3.362842863E+01  5.353364258E+02
