# == pyFAI calibration ==
# SplineFile: None
# PixelSize: 7.900e-05, 7.900e-05 m
# PONI: 1.411e-01, 1.028e-01 m
# Distance Sample to Detector: 0.252389920345 m
# Rotations: 0.001947 0.002954 0.000003 rad
# 
# == Fit2d calibration ==
# Distance Sample-beamCenter: 252.392 mm
# Center: x=1295.273, y=1795.185 pix
# Tilt: 0.203 deg  TiltPlanRot: 123.397 deg
# 
# Wavelength: 8.603e-11
# Polarization factor: 0.99
# Normalization factor: None
#
# 2th_deg	 I
3.335335913E+00  6.937192871E+03
3.345515043E+00  6.946548340E+03
3.355694174E+00  6.968396484E+03
3.365873304E+00  6.954566895E+03
3.376052435E+00  6.948458984E+03
3.386231566E+00  6.950836426E+03
3.396410696E+00  6.970000977E+03
3.406589827E+00  6.986270020E+03
3.416768958E+00  6.995604492E+03
3.426948088E+00  7.016862793E+03
3.437127219E+00  7.052045410E+03
3.447306349E+00  7.094885742E+03
3.457485480E+00  7.118981445E+03
3.467664611E+00  7.121963379E+03
3.477843741E+00  7.139964355E+03
3.488022872E+00  7.160204102E+03
3.498202002E+00  7.160735352E+03
3.508381133E+00  7.146776367E+03
3.518560264E+00  7.150943359E+03
3.528739394E+00  7.172442871E+03
3.538918525E+00  7.175847656E+03
3.549097656E+00  7.179416992E+03
3.559276786E+00  7.178611328E+03
3.569455917E+00  7.197717285E+03
3.579635047E+00  7.221110352E+03
3.589814178E+00  7.238942383E+03
3.599993309E+00  7.235382812E+03
3.610172439E+00  7.234968262E+03
3.620351570E+00  7.245213867E+03
3.630530701E+00  7.271504883E+03
3.640709831E+00  7.288614258E+03
3.650888962E+00  7.325181152E+03
3.661068092E+00  7.361621094E+03
3.671247223E+00  7.383505371E+03
3.681426354E+00  7.383125488E+03
3.691605484E+00  7.383451660E+03
3.701784615E+00  7.391908691E+03
3.711963745E+00  7.413658203E+03
3.722142876E+00  7.418743652E+03
3.732322007E+00  7.438698242E+03
3.742501137E+00  7.451556641E+03
3.752680268E+00  7.455008301E+03
3.762859399E+00  7.462607422E+03
3.773038529E+00  7.458333008E+03
3.783217660E+00  7.457039551E+03
3.793396790E+00  7.457529785E+03
3.803575921E+00  7.464222168E+03
3.813755052E+00  7.469688477E+03
3.823934182E+00  7.479596680E+03
3.834113313E+00  7.483157227E+03
3.844292444E+00  7.481732422E+03
3.854471574E+00  7.492166992E+03
3.864650705E+00  7.490308594E+03
3.874829835E+00  7.490425781E+03
3.885008966E+00  7.488010742E+03
3.895188097E+00  7.500698242E+03
3.905367227E+00  7.501428711E+03
3.915546358E+00  7.498853027E+03
3.925725488E+00  7.498852539E+03
3.935904619E+00  7.486098145E+03
3.946083750E+00  7.469020508E+03
3.956262880E+00  7.473913574E+03
3.966442011E+00  7.483752441E+03
3.976621142E+00  7.494003418E+03
3.986800272E+00  7.493979980E+03
3.996979403E+00  7.494462402E+03
4.007158533E+00  7.498241699E+03
4.017337664E+00  7.499664551E+03
4.027516795E+00  7.489140137E+03
4.037695925E+00  7.493438965E+03
4.047875056E+00  7.509907715E+03
4.058054187E+00  7.523248535E+03
4.068233317E+00  7.509009277E+03
4.078412448E+00  7.496510254E+03
4.088591578E+00  7.499128418E+03
4.098770709E+00  7.508851562E+03
4.108949840E+00  7.512634277E+03
4.119128970E+00  7.517313477E+03
4.129308101E+00  7.535041992E+03
4.139487231E+00  7.535304688E+03
4.149666362E+00  7.535121582E+03
4.159845493E+00  7.534422852E+03
4.170024623E+00  7.529498047E+03
4.180203754E+00  7.530939941E+03
4.190382885E+00  7.535973633E+03
4.200562015E+00  7.528908691E+03
4.210741146E+00  7.505787598E+03
4.220920276E+00  7.496922852E+03
4.231099407E+00  7.503990234E+03
4.241278538E+00  7.503812500E+03
4.251457668E+00  7.491653320E+03
4.261636799E+00  7.490119141E+03
4.271815930E+00  7.504274414E+03
4.281995060E+00  7.514927246E+03
4.292174191E+00  7.534062500E+03
4.302353321E+00  7.532517090E+03
4.312532452E+00  7.518105957E+03
4.322711583E+00  7.491572266E+03
4.332890713E+00  7.488000977E+03
4.343069844E+00  7.496984863E+03
4.353248974E+00  7.503120605E+03
4.363428105E+00  7.503561035E+03
4.373607236E+00  7.497193848E+03
4.383786366E+00  7.499966309E+03
4.393965497E+00  7.502116211E+03
4.404144628E+00  7.501030762E+03
4.414323758E+00  7.495723633E+03
4.424502889E+00  7.489892090E+03
4.434682019E+00  7.495064941E+03
4.444861150E+00  7.491385254E+03
4.455040281E+00  7.487574219E+03
4.465219411E+00  7.484628418E+03
4.475398542E+00  7.488029297E+03
4.485577673E+00  7.484415039E+03
4.495756803E+00  7.475760742E+03
4.505935934E+00  7.464594238E+03
4.516115064E+00  7.472516602E+03
4.526294195E+00  7.488937500E+03
4.536473326E+00  7.489256836E+03
4.546652456E+00  7.479567383E+03
4.556831587E+00  7.477751953E+03
4.567010717E+00  7.486346191E+03
4.577189848E+00  7.491813965E+03
4.587368979E+00  7.492531738E+03
4.597548109E+00  7.489776855E+03
4.607727240E+00  7.483263184E+03
4.617906371E+00  7.483629883E+03
4.628085501E+00  7.481687988E+03
4.638264632E+00  7.481756836E+03
4.648443762E+00  7.492539551E+03
4.658622893E+00  7.495625000E+03
4.668802024E+00  7.488574707E+03
4.678981154E+00  7.476857910E+03
4.689160285E+00  7.468300293E+03
4.699339415E+00  7.456135254E+03
4.709518546E+00  7.444478027E+03
4.719697677E+00  7.453484863E+03
4.729876807E+00  7.459910156E+03
4.740055938E+00  7.465903809E+03
4.750235069E+00  7.470691895E+03
4.760414199E+00  7.463951660E+03
4.770593330E+00  7.461679688E+03
4.780772460E+00  7.468461426E+03
4.790951591E+00  7.471304688E+03
4.801130722E+00  7.468705566E+03
4.811309852E+00  7.462760254E+03
4.821488983E+00  7.473131348E+03
4.831668114E+00  7.476805176E+03
4.841847244E+00  7.473187500E+03
4.852026375E+00  7.465342285E+03
4.862205505E+00  7.455306152E+03
4.872384636E+00  7.444929688E+03
4.882563767E+00  7.442677246E+03
4.892742897E+00  7.445000000E+03
4.902922028E+00  7.444727051E+03
4.913101158E+00  7.445718750E+03
4.923280289E+00  7.443378906E+03
4.933459420E+00  7.437453613E+03
4.943638550E+00  7.436995117E+03
4.953817681E+00  7.437980957E+03
4.963996812E+00  7.432216797E+03
4.974175942E+00  7.425684570E+03
4.984355073E+00  7.425855957E+03
4.994534203E+00  7.428808594E+03
5.004713334E+00  7.421653809E+03
5.014892465E+00  7.405324219E+03
5.025071595E+00  7.400892090E+03
5.035250726E+00  7.409610840E+03
5.045429857E+00  7.421265137E+03
5.055608987E+00  7.427063477E+03
5.065788118E+00  7.416655273E+03
5.075967248E+00  7.408682617E+03
5.086146379E+00  7.411317383E+03
5.096325510E+00  7.416123535E+03
5.106504640E+00  7.416071289E+03
5.116683771E+00  7.414575195E+03
5.126862901E+00  7.418677734E+03
5.137042032E+00  7.426320801E+03
5.147221163E+00  7.434639648E+03
5.157400293E+00  7.432027832E+03
5.167579424E+00  7.419055176E+03
5.177758555E+00  7.414997070E+03
5.187937685E+00  7.422563965E+03
5.198116816E+00  7.428402832E+03
5.208295946E+00  7.429291504E+03
5.218475077E+00  7.419976562E+03
5.228654208E+00  7.410622559E+03
5.238833338E+00  7.403562988E+03
5.249012469E+00  7.392055176E+03
5.259191600E+00  7.379225586E+03
5.269370730E+00  7.373867676E+03
5.279549861E+00  7.371593750E+03
5.289728991E+00  7.373825684E+03
5.299908122E+00  7.370628418E+03
5.310087253E+00  7.371514160E+03
5.320266383E+00  7.383048340E+03
5.330445514E+00  7.399246094E+03
5.340624644E+00  7.405202637E+03
5.350803775E+00  7.393879883E+03
5.360982906E+00  7.383973145E+03
5.371162036E+00  7.378733398E+03
5.381341167E+00  7.372394043E+03
5.391520298E+00  7.362336914E+03
5.401699428E+00  7.360654785E+03
5.411878559E+00  7.365437500E+03
5.422057689E+00  7.365087891E+03
5.432236820E+00  7.350576660E+03
5.442415951E+00  7.334294922E+03
5.452595081E+00  7.323852539E+03
5.462774212E+00  7.319046875E+03
5.472953343E+00  7.309073730E+03
5.483132473E+00  7.299825195E+03
5.493311604E+00  7.291041016E+03
5.503490734E+00  7.285131348E+03
5.513669865E+00  7.282070801E+03
5.523848996E+00  7.274754395E+03
5.534028126E+00  7.269010254E+03
5.544207257E+00  7.267780762E+03
5.554386387E+00  7.265929688E+03
5.564565518E+00  7.262260254E+03
5.574744649E+00  7.261162109E+03
5.584923779E+00  7.255928223E+03
5.595102910E+00  7.251959473E+03
5.605282041E+00  7.236336426E+03
5.615461171E+00  7.226401855E+03
5.625640302E+00  7.224440918E+03
5.635819432E+00  7.229642090E+03
5.645998563E+00  7.230785156E+03
5.656177694E+00  7.218689453E+03
5.666356824E+00  7.204549316E+03
5.676535955E+00  7.194959961E+03
5.686715086E+00  7.188812988E+03
5.696894216E+00  7.182556152E+03
5.707073347E+00  7.179173828E+03
5.717252477E+00  7.182198730E+03
5.727431608E+00  7.178217285E+03
5.737610739E+00  7.170533691E+03
5.747789869E+00  7.166709473E+03
5.757969000E+00  7.164005371E+03
5.768148130E+00  7.155662109E+03
5.778327261E+00  7.140710449E+03
5.788506392E+00  7.129512695E+03
5.798685522E+00  7.123547363E+03
5.808864653E+00  7.125077148E+03
5.819043784E+00  7.119774414E+03
5.829222914E+00  7.118133789E+03
5.839402045E+00  7.116977051E+03
5.849581175E+00  7.116449707E+03
5.859760306E+00  7.108237305E+03
5.869939437E+00  7.091562988E+03
5.880118567E+00  7.080591797E+03
5.890297698E+00  7.075757324E+03
5.900476829E+00  7.079045410E+03
5.910655959E+00  7.079009277E+03
5.920835090E+00  7.074264648E+03
5.931014220E+00  7.060556152E+03
5.941193351E+00  7.054536621E+03
5.951372482E+00  7.052428223E+03
5.961551612E+00  7.047343750E+03
5.971730743E+00  7.035539551E+03
5.981909873E+00  7.029670898E+03
5.992089004E+00  7.024562012E+03
6.002268135E+00  7.024568359E+03
6.012447265E+00  7.028521484E+03
6.022626396E+00  7.030645020E+03
6.032805527E+00  7.024835449E+03
6.042984657E+00  7.012773926E+03
6.053163788E+00  7.002292969E+03
6.063342918E+00  6.993003906E+03
6.073522049E+00  6.987526367E+03
6.083701180E+00  6.984091309E+03
6.093880310E+00  6.981245117E+03
6.104059441E+00  6.977089844E+03
6.114238572E+00  6.974491699E+03
6.124417702E+00  6.969544434E+03
6.134596833E+00  6.966021484E+03
6.144775963E+00  6.962662598E+03
6.154955094E+00  6.960656738E+03
6.165134225E+00  6.956219238E+03
6.175313355E+00  6.949203125E+03
6.185492486E+00  6.940056152E+03
6.195671616E+00  6.933634277E+03
6.205850747E+00  6.929651367E+03
6.216029878E+00  6.924418457E+03
6.226209008E+00  6.918965332E+03
6.236388139E+00  6.910096191E+03
6.246567270E+00  6.905979492E+03
6.256746400E+00  6.895300293E+03
6.266925531E+00  6.886174316E+03
6.277104661E+00  6.873117676E+03
6.287283792E+00  6.869625488E+03
6.297462923E+00  6.876816406E+03
6.307642053E+00  6.879281250E+03
6.317821184E+00  6.877092285E+03
6.328000315E+00  6.874084473E+03
6.338179445E+00  6.867003906E+03
6.348358576E+00  6.853941895E+03
6.358537706E+00  6.845510254E+03
6.368716837E+00  6.840044922E+03
6.378895968E+00  6.834999023E+03
6.389075098E+00  6.828824219E+03
6.399254229E+00  6.823096680E+03
6.409433359E+00  6.820345215E+03
6.419612490E+00  6.818063477E+03
6.429791621E+00  6.807264648E+03
6.439970751E+00  6.797880859E+03
6.450149882E+00  6.791708984E+03
6.460329013E+00  6.788196289E+03
6.470508143E+00  6.779704102E+03
6.480687274E+00  6.767459961E+03
6.490866404E+00  6.760964844E+03
6.501045535E+00  6.759759766E+03
6.511224666E+00  6.764864258E+03
6.521403796E+00  6.767746094E+03
6.531582927E+00  6.762041992E+03
6.541762058E+00  6.754885254E+03
6.551941188E+00  6.748118164E+03
6.562120319E+00  6.744102539E+03
6.572299449E+00  6.741525879E+03
6.582478580E+00  6.738695312E+03
6.592657711E+00  6.731538574E+03
6.602836841E+00  6.720341797E+03
6.613015972E+00  6.707696777E+03
6.623195102E+00  6.701544434E+03
6.633374233E+00  6.698950195E+03
6.643553364E+00  6.699010254E+03
6.653732494E+00  6.699925781E+03
6.663911625E+00  6.704350098E+03
6.674090756E+00  6.704418457E+03
6.684269886E+00  6.693379395E+03
6.694449017E+00  6.677528809E+03
6.704628147E+00  6.665851562E+03
6.714807278E+00  6.657375488E+03
6.724986409E+00  6.649572266E+03
6.735165539E+00  6.644530273E+03
6.745344670E+00  6.634612793E+03
6.755523800E+00  6.628339844E+03
6.765702931E+00  6.623179199E+03
6.775882062E+00  6.618490723E+03
6.786061192E+00  6.613805664E+03
6.796240323E+00  6.610176758E+03
6.806419454E+00  6.602256836E+03
6.816598584E+00  6.593461426E+03
6.826777715E+00  6.585473145E+03
6.836956845E+00  6.575972656E+03
6.847135976E+00  6.566463867E+03
6.857315107E+00  6.557972656E+03
6.867494237E+00  6.548922363E+03
6.877673368E+00  6.544650879E+03
6.887852499E+00  6.542904785E+03
6.898031629E+00  6.537162598E+03
6.908210760E+00  6.528166992E+03
6.918389890E+00  6.519800293E+03
6.928569021E+00  6.514870117E+03
6.938748152E+00  6.512580566E+03
6.948927282E+00  6.509538086E+03
6.959106413E+00  6.501198730E+03
6.969285543E+00  6.492917480E+03
6.979464674E+00  6.485900391E+03
6.989643805E+00  6.480427246E+03
6.999822935E+00  6.474307129E+03
7.010002066E+00  6.465536133E+03
7.020181197E+00  6.461309082E+03
7.030360327E+00  6.456849121E+03
7.040539458E+00  6.451973633E+03
7.050718588E+00  6.443501465E+03
7.060897719E+00  6.437825684E+03
7.071076850E+00  6.433109863E+03
7.081255980E+00  6.429290039E+03
7.091435111E+00  6.423600586E+03
7.101614242E+00  6.417937988E+03
7.111793372E+00  6.410711914E+03
7.121972503E+00  6.395282227E+03
7.132151633E+00  6.385778320E+03
7.142330764E+00  6.382812012E+03
7.152509895E+00  6.381241699E+03
7.162689025E+00  6.375786133E+03
7.172868156E+00  6.368694336E+03
7.183047286E+00  6.367600098E+03
7.193226417E+00  6.367713867E+03
7.203405548E+00  6.361766113E+03
7.213584678E+00  6.350879883E+03
7.223763809E+00  6.342840332E+03
7.233942940E+00  6.333064941E+03
7.244122070E+00  6.323924805E+03
7.254301201E+00  6.323389160E+03
7.264480331E+00  6.321984863E+03
7.274659462E+00  6.324360352E+03
7.284838593E+00  6.318370605E+03
7.295017723E+00  6.313060059E+03
7.305196854E+00  6.305934082E+03
7.315375985E+00  6.297970703E+03
7.325555115E+00  6.293883789E+03
7.335734246E+00  6.285089844E+03
7.345913376E+00  6.270976074E+03
7.356092507E+00  6.253872559E+03
7.366271638E+00  6.243881348E+03
7.376450768E+00  6.241185059E+03
7.386629899E+00  6.239167969E+03
7.396809029E+00  6.238805664E+03
7.406988160E+00  6.233668457E+03
7.417167291E+00  6.226364746E+03
7.427346421E+00  6.217610840E+03
7.437525552E+00  6.206082520E+03
7.447704683E+00  6.198025391E+03
7.457883813E+00  6.193356445E+03
7.468062944E+00  6.187475098E+03
7.478242074E+00  6.175602051E+03
7.488421205E+00  6.165353516E+03
7.498600336E+00  6.158888184E+03
7.508779466E+00  6.152976074E+03
7.518958597E+00  6.148464355E+03
7.529137728E+00  6.144498535E+03
7.539316858E+00  6.134979004E+03
7.549495989E+00  6.124998047E+03
7.559675119E+00  6.117543945E+03
7.569854250E+00  6.108506836E+03
7.580033381E+00  6.100358398E+03
7.590212511E+00  6.089404297E+03
7.600391642E+00  6.078362305E+03
7.610570772E+00  6.071607422E+03
7.620749903E+00  6.071506836E+03
7.630929034E+00  6.076146484E+03
7.641108164E+00  6.076170410E+03
7.651287295E+00  6.070180664E+03
7.661466426E+00  6.058335449E+03
7.671645556E+00  6.047430176E+03
7.681824687E+00  6.035150879E+03
7.692003817E+00  6.023956055E+03
7.702182948E+00  6.015400879E+03
7.712362079E+00  6.003500488E+03
7.722541209E+00  5.993712402E+03
7.732720340E+00  5.986369141E+03
7.742899471E+00  5.981403320E+03
7.753078601E+00  5.975421875E+03
7.763257732E+00  5.969434082E+03
7.773436862E+00  5.965334961E+03
7.783615993E+00  5.960674805E+03
7.793795124E+00  5.954653809E+03
7.803974254E+00  5.946109375E+03
7.814153385E+00  5.941447266E+03
7.824332515E+00  5.935590820E+03
7.834511646E+00  5.923867188E+03
7.844690777E+00  5.913428223E+03
7.854869907E+00  5.907891602E+03
7.865049038E+00  5.902257324E+03
7.875228169E+00  5.894017090E+03
7.885407299E+00  5.883899414E+03
7.895586430E+00  5.877652344E+03
7.905765560E+00  5.871168945E+03
7.915944691E+00  5.861659180E+03
7.926123822E+00  5.858849609E+03
7.936302952E+00  5.852379395E+03
7.946482083E+00  5.839812012E+03
7.956661214E+00  5.823187988E+03
7.966840344E+00  5.813455078E+03
7.977019475E+00  5.809477051E+03
7.987198605E+00  5.805391602E+03
7.997377736E+00  5.798497559E+03
8.007556867E+00  5.787528320E+03
8.017735997E+00  5.778457031E+03
8.027915128E+00  5.768984375E+03
8.038094258E+00  5.760388184E+03
8.048273389E+00  5.757010254E+03
8.058452520E+00  5.756967285E+03
8.068631650E+00  5.750871094E+03
8.078810781E+00  5.740131348E+03
8.088989912E+00  5.733790527E+03
8.099169042E+00  5.725066895E+03
8.109348173E+00  5.713781738E+03
8.119527303E+00  5.703227539E+03
8.129706434E+00  5.696522949E+03
8.139885565E+00  5.685166504E+03
8.150064695E+00  5.675053223E+03
8.160243826E+00  5.669807617E+03
8.170422957E+00  5.663730469E+03
8.180602087E+00  5.655741211E+03
8.190781218E+00  5.653444336E+03
8.200960348E+00  5.649133301E+03
8.211139479E+00  5.638868652E+03
8.221318610E+00  5.627437988E+03
8.231497740E+00  5.619518066E+03
8.241676871E+00  5.610458496E+03
8.251856001E+00  5.603980469E+03
8.262035132E+00  5.601298340E+03
8.272214263E+00  5.599835938E+03
8.282393393E+00  5.593859863E+03
8.292572524E+00  5.585470215E+03
8.302751655E+00  5.577116699E+03
8.312930785E+00  5.572249023E+03
8.323109916E+00  5.567925293E+03
8.333289046E+00  5.559678223E+03
8.343468177E+00  5.549893555E+03
8.353647308E+00  5.539382324E+03
8.363826438E+00  5.531636230E+03
8.374005569E+00  5.519875977E+03
8.384184700E+00  5.510746094E+03
8.394363830E+00  5.511130371E+03
8.404542961E+00  5.510342285E+03
8.414722091E+00  5.504927246E+03
8.424901222E+00  5.496184570E+03
8.435080353E+00  5.485008789E+03
8.445259483E+00  5.472589844E+03
8.455438614E+00  5.463459961E+03
8.465617744E+00  5.455500488E+03
8.475796875E+00  5.449114746E+03
8.485976006E+00  5.443637695E+03
8.496155136E+00  5.439402344E+03
8.506334267E+00  5.432838867E+03
8.516513398E+00  5.427475098E+03
8.526692528E+00  5.422646484E+03
8.536871659E+00  5.416584961E+03
8.547050789E+00  5.406507324E+03
8.557229920E+00  5.397124512E+03
8.567409051E+00  5.390420898E+03
8.577588181E+00  5.383242188E+03
8.587767312E+00  5.378060059E+03
8.597946443E+00  5.370808105E+03
8.608125573E+00  5.362513672E+03
8.618304704E+00  5.356551758E+03
8.628483834E+00  5.347159668E+03
8.638662965E+00  5.340403320E+03
8.648842096E+00  5.334242188E+03
8.659021226E+00  5.326457031E+03
8.669200357E+00  5.315394043E+03
8.679379487E+00  5.306497559E+03
8.689558618E+00  5.304901855E+03
8.699737749E+00  5.306593750E+03
8.709916879E+00  5.301282227E+03
8.720096010E+00  5.289851562E+03
8.730275141E+00  5.281192871E+03
8.740454271E+00  5.275940430E+03
8.750633402E+00  5.275453613E+03
8.760812532E+00  5.272076660E+03
8.770991663E+00  5.263083984E+03
8.781170794E+00  5.257714844E+03
8.791349924E+00  5.249165039E+03
8.801529055E+00  5.236688965E+03
8.811708185E+00  5.224667969E+03
8.821887316E+00  5.213241211E+03
8.832066447E+00  5.204992188E+03
8.842245577E+00  5.199549316E+03
8.852424708E+00  5.195125000E+03
8.862603839E+00  5.186618164E+03
8.872782969E+00  5.175615723E+03
8.882962100E+00  5.167126465E+03
8.893141230E+00  5.162038086E+03
8.903320361E+00  5.161811523E+03
8.913499492E+00  5.159892578E+03
8.923678622E+00  5.155157715E+03
8.933857753E+00  5.144833008E+03
8.944036884E+00  5.132042969E+03
8.954216014E+00  5.122884277E+03
8.964395145E+00  5.115490234E+03
8.974574275E+00  5.110696289E+03
8.984753406E+00  5.101636719E+03
8.994932537E+00  5.092649414E+03
9.005111667E+00  5.087328125E+03
9.015290798E+00  5.084737793E+03
9.025469928E+00  5.080500977E+03
9.035649059E+00  5.077181641E+03
9.045828190E+00  5.070411621E+03
9.056007320E+00  5.061300293E+03
9.066186451E+00  5.055685547E+03
9.076365582E+00  5.052194824E+03
9.086544712E+00  5.045109863E+03
9.096723843E+00  5.035570312E+03
9.106902973E+00  5.027148926E+03
9.117082104E+00  5.022733398E+03
9.127261235E+00  5.014403809E+03
9.137440365E+00  5.003707031E+03
9.147619496E+00  4.996271484E+03
9.157798627E+00  4.993072754E+03
9.167977757E+00  4.993213867E+03
9.178156888E+00  4.988483398E+03
9.188336018E+00  4.979664551E+03
9.198515149E+00  4.969253418E+03
9.208694280E+00  4.958910156E+03
9.218873410E+00  4.951029785E+03
9.229052541E+00  4.939983398E+03
9.239231671E+00  4.930636719E+03
9.249410802E+00  4.928650391E+03
9.259589933E+00  4.924738770E+03
9.269769063E+00  4.917917969E+03
9.279948194E+00  4.910465820E+03
9.290127325E+00  4.905231445E+03
9.300306455E+00  4.901368652E+03
9.310485586E+00  4.893997559E+03
9.320664716E+00  4.883649414E+03
9.330843847E+00  4.873548828E+03
9.341022978E+00  4.868123047E+03
9.351202108E+00  4.864386719E+03
9.361381239E+00  4.856666504E+03
9.371560370E+00  4.848515625E+03
9.381739500E+00  4.839232910E+03
9.391918631E+00  4.832343750E+03
9.402097761E+00  4.827708496E+03
9.412276892E+00  4.823889648E+03
9.422456023E+00  4.821834473E+03
9.432635153E+00  4.818532715E+03
9.442814284E+00  4.810562012E+03
9.452993414E+00  4.800930664E+03
9.463172545E+00  4.795944336E+03
9.473351676E+00  4.788577148E+03
9.483530806E+00  4.778361328E+03
9.493709937E+00  4.772998535E+03
9.503889068E+00  4.767870605E+03
9.514068198E+00  4.762246094E+03
9.524247329E+00  4.755572266E+03
9.534426459E+00  4.749970703E+03
9.544605590E+00  4.743395996E+03
9.554784721E+00  4.736102051E+03
9.564963851E+00  4.723652344E+03
9.575142982E+00  4.716215820E+03
9.585322113E+00  4.711788574E+03
9.595501243E+00  4.702369141E+03
9.605680374E+00  4.691663086E+03
9.615859504E+00  4.685463379E+03
9.626038635E+00  4.682112793E+03
9.636217766E+00  4.679808105E+03
9.646396896E+00  4.678862305E+03
9.656576027E+00  4.673750000E+03
9.666755157E+00  4.666011230E+03
9.676934288E+00  4.660610352E+03
9.687113419E+00  4.652393555E+03
9.697292549E+00  4.641607910E+03
9.707471680E+00  4.634880859E+03
9.717650811E+00  4.628316406E+03
9.727829941E+00  4.621537109E+03
9.738009072E+00  4.614143066E+03
9.748188202E+00  4.609624512E+03
9.758367333E+00  4.609270996E+03
9.768546464E+00  4.606436035E+03
9.778725594E+00  4.597619629E+03
9.788904725E+00  4.588299316E+03
9.799083856E+00  4.582288574E+03
9.809262986E+00  4.574893555E+03
9.819442117E+00  4.565477051E+03
9.829621247E+00  4.555049805E+03
9.839800378E+00  4.548185059E+03
9.849979509E+00  4.542229492E+03
9.860158639E+00  4.536041992E+03
9.870337770E+00  4.530870605E+03
9.880516900E+00  4.527623047E+03
9.890696031E+00  4.523995605E+03
9.900875162E+00  4.518255371E+03
9.911054292E+00  4.507018555E+03
9.921233423E+00  4.496479492E+03
9.931412554E+00  4.492415527E+03
9.941591684E+00  4.488422363E+03
9.951770815E+00  4.481654297E+03
9.961949945E+00  4.473775879E+03
9.972129076E+00  4.466267578E+03
9.982308207E+00  4.456367188E+03
9.992487337E+00  4.450005371E+03
1.000266647E+01  4.446471191E+03
1.001284560E+01  4.442963379E+03
1.002302473E+01  4.437413086E+03
1.003320386E+01  4.430280273E+03
1.004338299E+01  4.423563477E+03
1.005356212E+01  4.418018555E+03
1.006374125E+01  4.413642578E+03
1.007392038E+01  4.406229980E+03
1.008409951E+01  4.401371582E+03
1.009427864E+01  4.398770508E+03
1.010445777E+01  4.393399414E+03
1.011463690E+01  4.384341309E+03
1.012481604E+01  4.376770996E+03
1.013499517E+01  4.369730957E+03
1.014517430E+01  4.363928711E+03
1.015535343E+01  4.359273926E+03
1.016553256E+01  4.353643555E+03
1.017571169E+01  4.347371094E+03
1.018589082E+01  4.341526367E+03
1.019606995E+01  4.337282227E+03
1.020624908E+01  4.335329102E+03
1.021642821E+01  4.331669434E+03
1.022660734E+01  4.320988281E+03
1.023678647E+01  4.312183105E+03
1.024696560E+01  4.304879883E+03
1.025714473E+01  4.295863770E+03
1.026732386E+01  4.287635254E+03
1.027750299E+01  4.283483887E+03
1.028768213E+01  4.281498047E+03
1.029786126E+01  4.277358398E+03
1.030804039E+01  4.270542480E+03
1.031821952E+01  4.263502441E+03
1.032839865E+01  4.258980957E+03
1.033857778E+01  4.253552246E+03
1.034875691E+01  4.245445312E+03
1.035893604E+01  4.241815918E+03
1.036911517E+01  4.237651855E+03
1.037929430E+01  4.228117676E+03
1.038947343E+01  4.219594238E+03
1.039965256E+01  4.212594727E+03
1.040983169E+01  4.205649902E+03
1.042001082E+01  4.198683105E+03
1.043018995E+01  4.190171387E+03
1.044036908E+01  4.181447266E+03
1.045054822E+01  4.173706055E+03
1.046072735E+01  4.167805664E+03
1.047090648E+01  4.164681152E+03
1.048108561E+01  4.163955078E+03
1.049126474E+01  4.158081543E+03
1.050144387E+01  4.150719238E+03
1.051162300E+01  4.144604980E+03
1.052180213E+01  4.138548340E+03
1.053198126E+01  4.131855469E+03
1.054216039E+01  4.125924316E+03
1.055233952E+01  4.120360840E+03
1.056251865E+01  4.115185059E+03
1.057269778E+01  4.106505371E+03
1.058287691E+01  4.097573730E+03
1.059305604E+01  4.093375488E+03
1.060323517E+01  4.090296875E+03
1.061341431E+01  4.087642090E+03
1.062359344E+01  4.080865479E+03
1.063377257E+01  4.073178955E+03
1.064395170E+01  4.066420410E+03
1.065413083E+01  4.058313477E+03
1.066430996E+01  4.051777100E+03
1.067448909E+01  4.045862061E+03
1.068466822E+01  4.040899414E+03
1.069484735E+01  4.036370605E+03
1.070502648E+01  4.030012451E+03
1.071520561E+01  4.024315430E+03
1.072538474E+01  4.017636719E+03
1.073556387E+01  4.014205811E+03
1.074574300E+01  4.012476074E+03
1.075592213E+01  4.009970703E+03
1.076610126E+01  4.002859375E+03
1.077628039E+01  3.992802002E+03
1.078645953E+01  3.984737549E+03
1.079663866E+01  3.979201172E+03
1.080681779E+01  3.973059814E+03
1.081699692E+01  3.968487061E+03
1.082717605E+01  3.963114746E+03
1.083735518E+01  3.956009766E+03
1.084753431E+01  3.946185303E+03
1.085771344E+01  3.939414307E+03
1.086789257E+01  3.934066162E+03
1.087807170E+01  3.929851807E+03
1.088825083E+01  3.924144043E+03
1.089842996E+01  3.917465820E+03
1.090860909E+01  3.911849854E+03
1.091878822E+01  3.907690186E+03
1.092896735E+01  3.903307617E+03
1.093914648E+01  3.899987793E+03
1.094932562E+01  3.895672119E+03
1.095950475E+01  3.889298584E+03
1.096968388E+01  3.881992432E+03
1.097986301E+01  3.876809570E+03
1.099004214E+01  3.874447998E+03
1.100022127E+01  3.869952393E+03
1.101040040E+01  3.861247559E+03
1.102057953E+01  3.850816895E+03
1.103075866E+01  3.845660645E+03
1.104093779E+01  3.844274658E+03
1.105111692E+01  3.840735107E+03
1.106129605E+01  3.834557861E+03
1.107147518E+01  3.829950195E+03
1.108165431E+01  3.825397217E+03
1.109183344E+01  3.822702148E+03
1.110201257E+01  3.818629150E+03
1.111219171E+01  3.814195557E+03
1.112237084E+01  3.810085938E+03
1.113254997E+01  3.802905273E+03
1.114272910E+01  3.796538574E+03
1.115290823E+01  3.796180420E+03
1.116308736E+01  3.794144531E+03
1.117326649E+01  3.789231934E+03
1.118344562E+01  3.784136475E+03
1.119362475E+01  3.778075195E+03
1.120380388E+01  3.771129883E+03
1.121398301E+01  3.768017822E+03
1.122416214E+01  3.765193359E+03
1.123434127E+01  3.758010254E+03
1.124452040E+01  3.750874023E+03
1.125469953E+01  3.746444580E+03
1.126487866E+01  3.741735107E+03
1.127505780E+01  3.738084961E+03
1.128523693E+01  3.733783691E+03
1.129541606E+01  3.727196533E+03
1.130559519E+01  3.720153076E+03
1.131577432E+01  3.716708008E+03
1.132595345E+01  3.711840820E+03
1.133613258E+01  3.705521973E+03
1.134631171E+01  3.699618896E+03
1.135649084E+01  3.695154053E+03
1.136666997E+01  3.691625000E+03
1.137684910E+01  3.689558105E+03
1.138702823E+01  3.686354980E+03
1.139720736E+01  3.680148438E+03
1.140738649E+01  3.671554932E+03
1.141756562E+01  3.662261963E+03
1.142774475E+01  3.657542725E+03
1.143792389E+01  3.654899170E+03
1.144810302E+01  3.649934326E+03
1.145828215E+01  3.646801514E+03
1.146846128E+01  3.645808105E+03
1.147864041E+01  3.641855225E+03
1.148881954E+01  3.634927490E+03
1.149899867E+01  3.627963379E+03
1.150917780E+01  3.624506836E+03
1.151935693E+01  3.621940674E+03
1.152953606E+01  3.618706543E+03
1.153971519E+01  3.613198486E+03
1.154989432E+01  3.608656738E+03
1.156007345E+01  3.605695312E+03
1.157025258E+01  3.603899414E+03
1.158043171E+01  3.601403564E+03
1.159061084E+01  3.595006104E+03
1.160078998E+01  3.586802490E+03
1.161096911E+01  3.585322510E+03
1.162114824E+01  3.584131348E+03
1.163132737E+01  3.580282959E+03
1.164150650E+01  3.573963623E+03
1.165168563E+01  3.569014648E+03
1.166186476E+01  3.564888428E+03
1.167204389E+01  3.562685303E+03
1.168222302E+01  3.558878174E+03
1.169240215E+01  3.554522461E+03
1.170258128E+01  3.549553955E+03
1.171276041E+01  3.546511963E+03
1.172293954E+01  3.544811768E+03
1.173311867E+01  3.543881348E+03
1.174329780E+01  3.539775635E+03
1.175347693E+01  3.535023193E+03
1.176365606E+01  3.531366211E+03
1.177383520E+01  3.528490723E+03
1.178401433E+01  3.521303223E+03
1.179419346E+01  3.513238281E+03
1.180437259E+01  3.506020020E+03
1.181455172E+01  3.498963135E+03
1.182473085E+01  3.494916992E+03
1.183490998E+01  3.493964111E+03
1.184508911E+01  3.493602783E+03
1.185526824E+01  3.493333984E+03
1.186544737E+01  3.491995850E+03
1.187562650E+01  3.486222900E+03
1.188580563E+01  3.482311768E+03
1.189598476E+01  3.477365967E+03
1.190616389E+01  3.472608154E+03
1.191634302E+01  3.467737305E+03
1.192652215E+01  3.465045654E+03
1.193670129E+01  3.461712891E+03
1.194688042E+01  3.458780518E+03
1.195705955E+01  3.453351318E+03
1.196723868E+01  3.446117676E+03
1.197741781E+01  3.441202637E+03
1.198759694E+01  3.440867188E+03
1.199777607E+01  3.436489746E+03
1.200795520E+01  3.430579102E+03
1.201813433E+01  3.423991455E+03
1.202831346E+01  3.417180908E+03
1.203849259E+01  3.411978516E+03
1.204867172E+01  3.408743652E+03
1.205885085E+01  3.408704590E+03
1.206902998E+01  3.406334229E+03
1.207920911E+01  3.400153076E+03
1.208938824E+01  3.395581055E+03
1.209956738E+01  3.391699707E+03
1.210974651E+01  3.387833008E+03
1.211992564E+01  3.383208252E+03
1.213010477E+01  3.378400879E+03
1.214028390E+01  3.374952637E+03
1.215046303E+01  3.371258057E+03
1.216064216E+01  3.368162842E+03
1.217082129E+01  3.363160400E+03
1.218100042E+01  3.360388428E+03
1.219117955E+01  3.356862793E+03
1.220135868E+01  3.353577881E+03
1.221153781E+01  3.346901367E+03
1.222171694E+01  3.342757324E+03
1.223189607E+01  3.336322510E+03
1.224207520E+01  3.332751709E+03
1.225225433E+01  3.331629883E+03
1.226243347E+01  3.330545410E+03
1.227261260E+01  3.326276855E+03
1.228279173E+01  3.321194092E+03
1.229297086E+01  3.318439209E+03
1.230314999E+01  3.315775391E+03
1.231332912E+01  3.309170166E+03
1.232350825E+01  3.305337158E+03
1.233368738E+01  3.303838379E+03
1.234386651E+01  3.302665771E+03
1.235404564E+01  3.299050537E+03
1.236422477E+01  3.294709961E+03
1.237440390E+01  3.291253418E+03
1.238458303E+01  3.287629883E+03
1.239476216E+01  3.281550049E+03
1.240494129E+01  3.274684082E+03
1.241512042E+01  3.271270020E+03
1.242529956E+01  3.269189941E+03
1.243547869E+01  3.267240723E+03
1.244565782E+01  3.260813232E+03
1.245583695E+01  3.253644043E+03
1.246601608E+01  3.249605225E+03
1.247619521E+01  3.247768555E+03
1.248637434E+01  3.244314697E+03
1.249655347E+01  3.239599121E+03
1.250673260E+01  3.237793701E+03
1.251691173E+01  3.235552979E+03
1.252709086E+01  3.231984619E+03
1.253726999E+01  3.229667725E+03
1.254744912E+01  3.229216064E+03
1.255762825E+01  3.223791260E+03
1.256780738E+01  3.217575195E+03
1.257798651E+01  3.213396484E+03
1.258816565E+01  3.209401123E+03
1.259834478E+01  3.204512695E+03
1.260852391E+01  3.200936279E+03
1.261870304E+01  3.197323242E+03
1.262888217E+01  3.193492188E+03
1.263906130E+01  3.189897217E+03
1.264924043E+01  3.188464844E+03
1.265941956E+01  3.186925049E+03
1.266959869E+01  3.183695557E+03
1.267977782E+01  3.178647461E+03
1.268995695E+01  3.174254639E+03
1.270013608E+01  3.170923584E+03
1.271031521E+01  3.167601562E+03
1.272049434E+01  3.161360596E+03
1.273067347E+01  3.158147217E+03
1.274085260E+01  3.154710693E+03
1.275103173E+01  3.150595947E+03
1.276121087E+01  3.147241943E+03
1.277139000E+01  3.145072021E+03
1.278156913E+01  3.143058105E+03
1.279174826E+01  3.139844971E+03
1.280192739E+01  3.135644775E+03
1.281210652E+01  3.130527344E+03
1.282228565E+01  3.125521240E+03
1.283246478E+01  3.124879639E+03
1.284264391E+01  3.124828125E+03
1.285282304E+01  3.122781006E+03
1.286300217E+01  3.119548096E+03
1.287318130E+01  3.116539307E+03
1.288336043E+01  3.114647949E+03
1.289353956E+01  3.110271973E+03
1.290371869E+01  3.105027100E+03
1.291389782E+01  3.100664795E+03
1.292407696E+01  3.099912598E+03
1.293425609E+01  3.097542969E+03
1.294443522E+01  3.092322998E+03
1.295461435E+01  3.087653564E+03
1.296479348E+01  3.082445068E+03
1.297497261E+01  3.079568848E+03
1.298515174E+01  3.077723877E+03
1.299533087E+01  3.073697266E+03
1.300551000E+01  3.070228271E+03
1.301568913E+01  3.069288330E+03
1.302586826E+01  3.068300049E+03
1.303604739E+01  3.062980957E+03
1.304622652E+01  3.057301270E+03
1.305640565E+01  3.053892090E+03
1.306658478E+01  3.053436035E+03
1.307676391E+01  3.052293701E+03
1.308694305E+01  3.049960938E+03
1.309712218E+01  3.046596924E+03
1.310730131E+01  3.040828125E+03
1.311748044E+01  3.035545654E+03
1.312765957E+01  3.031599609E+03
1.313783870E+01  3.027920166E+03
1.314801783E+01  3.023078125E+03
1.315819696E+01  3.021243896E+03
1.316837609E+01  3.020306396E+03
1.317855522E+01  3.018979248E+03
1.318873435E+01  3.017401855E+03
1.319891348E+01  3.015299805E+03
1.320909261E+01  3.011018555E+03
1.321927174E+01  3.006862061E+03
1.322945087E+01  3.002037598E+03
1.323963000E+01  2.997041016E+03
1.324980914E+01  2.992473877E+03
1.325998827E+01  2.990842529E+03
1.327016740E+01  2.989667480E+03
1.328034653E+01  2.986300537E+03
1.329052566E+01  2.984524902E+03
1.330070479E+01  2.983532959E+03
1.331088392E+01  2.980772217E+03
1.332106305E+01  2.977972168E+03
1.333124218E+01  2.975062256E+03
1.334142131E+01  2.971262939E+03
1.335160044E+01  2.966436279E+03
1.336177957E+01  2.962885010E+03
1.337195870E+01  2.961014160E+03
1.338213783E+01  2.958393311E+03
1.339231696E+01  2.955250000E+03
1.340249609E+01  2.952716309E+03
1.341267523E+01  2.949451172E+03
1.342285436E+01  2.945965576E+03
1.343303349E+01  2.943041504E+03
1.344321262E+01  2.940027588E+03
1.345339175E+01  2.939408447E+03
1.346357088E+01  2.937546631E+03
1.347375001E+01  2.934054688E+03
1.348392914E+01  2.929359863E+03
1.349410827E+01  2.924980469E+03
1.350428740E+01  2.923233154E+03
1.351446653E+01  2.923684082E+03
1.352464566E+01  2.923758301E+03
1.353482479E+01  2.921758057E+03
1.354500392E+01  2.917073975E+03
1.355518305E+01  2.911947266E+03
1.356536218E+01  2.908321045E+03
1.357554132E+01  2.904069336E+03
1.358572045E+01  2.899437256E+03
1.359589958E+01  2.896628662E+03
1.360607871E+01  2.894896484E+03
1.361625784E+01  2.892825195E+03
1.362643697E+01  2.888698242E+03
1.363661610E+01  2.884672363E+03
1.364679523E+01  2.882159180E+03
1.365697436E+01  2.880821533E+03
1.366715349E+01  2.877898438E+03
1.367733262E+01  2.875032959E+03
1.368751175E+01  2.872081299E+03
1.369769088E+01  2.867524414E+03
1.370787001E+01  2.864669678E+03
1.371804914E+01  2.862166504E+03
1.372822827E+01  2.858781250E+03
1.373840741E+01  2.856028076E+03
1.374858654E+01  2.855226807E+03
1.375876567E+01  2.855651855E+03
1.376894480E+01  2.854285400E+03
1.377912393E+01  2.850752686E+03
1.378930306E+01  2.847155762E+03
1.379948219E+01  2.844037109E+03
1.380966132E+01  2.844399170E+03
1.381984045E+01  2.844240723E+03
1.383001958E+01  2.841220215E+03
1.384019871E+01  2.835204346E+03
1.385037784E+01  2.830196289E+03
1.386055697E+01  2.826851074E+03
1.387073610E+01  2.823824951E+03
1.388091523E+01  2.824322998E+03
1.389109436E+01  2.824312744E+03
1.390127349E+01  2.820910156E+03
1.391145263E+01  2.816152832E+03
1.392163176E+01  2.814056152E+03
1.393181089E+01  2.811733643E+03
1.394199002E+01  2.810086426E+03
1.395216915E+01  2.809424316E+03
1.396234828E+01  2.807981201E+03
1.397252741E+01  2.805754395E+03
1.398270654E+01  2.803929199E+03
1.399288567E+01  2.798638672E+03
1.400306480E+01  2.794463135E+03
1.401324393E+01  2.792109131E+03
1.402342306E+01  2.791539307E+03
1.403360219E+01  2.790071045E+03
1.404378132E+01  2.785660156E+03
1.405396045E+01  2.781464111E+03
1.406413958E+01  2.779186768E+03
1.407431872E+01  2.777086182E+03
1.408449785E+01  2.775506592E+03
1.409467698E+01  2.773308105E+03
1.410485611E+01  2.771866943E+03
1.411503524E+01  2.767577637E+03
1.412521437E+01  2.762361328E+03
1.413539350E+01  2.761866943E+03
1.414557263E+01  2.762650879E+03
1.415575176E+01  2.760870117E+03
1.416593089E+01  2.756065674E+03
1.417611002E+01  2.752631348E+03
1.418628915E+01  2.751001953E+03
1.419646828E+01  2.749531982E+03
1.420664741E+01  2.747675537E+03
1.421682654E+01  2.744269043E+03
1.422700567E+01  2.740922852E+03
1.423718481E+01  2.739630371E+03
1.424736394E+01  2.738010254E+03
1.425754307E+01  2.734642334E+03
1.426772220E+01  2.730426514E+03
1.427790133E+01  2.728925781E+03
1.428808046E+01  2.729486328E+03
1.429825959E+01  2.730372070E+03
1.430843872E+01  2.728078369E+03
1.431861785E+01  2.724529053E+03
1.432879698E+01  2.723779541E+03
1.433897611E+01  2.723168945E+03
1.434915524E+01  2.722980713E+03
1.435933437E+01  2.721438232E+03
1.436951350E+01  2.717892090E+03
1.437969263E+01  2.714482422E+03
1.438987176E+01  2.713062500E+03
1.440005090E+01  2.708908691E+03
1.441023003E+01  2.704529053E+03
1.442040916E+01  2.703483887E+03
1.443058829E+01  2.705094238E+03
1.444076742E+01  2.704790771E+03
1.445094655E+01  2.702415283E+03
1.446112568E+01  2.700443604E+03
1.447130481E+01  2.696401123E+03
1.448148394E+01  2.692798096E+03
1.449166307E+01  2.689901123E+03
1.450184220E+01  2.687504883E+03
1.451202133E+01  2.683161865E+03
1.452220046E+01  2.682029053E+03
1.453237959E+01  2.681085449E+03
1.454255872E+01  2.679103027E+03
1.455273785E+01  2.676244385E+03
1.456291699E+01  2.675918457E+03
1.457309612E+01  2.674328857E+03
1.458327525E+01  2.672906250E+03
1.459345438E+01  2.672879639E+03
1.460363351E+01  2.673092285E+03
1.461381264E+01  2.672349121E+03
1.462399177E+01  2.671822021E+03
1.463417090E+01  2.667982910E+03
1.464435003E+01  2.663182129E+03
1.465452916E+01  2.659783447E+03
1.466470829E+01  2.656617676E+03
1.467488742E+01  2.654945557E+03
1.468506655E+01  2.653921143E+03
1.469524568E+01  2.655042480E+03
1.470542481E+01  2.653537354E+03
1.471560394E+01  2.649071289E+03
1.472578308E+01  2.643726562E+03
1.473596221E+01  2.642896240E+03
1.474614134E+01  2.644261719E+03
1.475632047E+01  2.644350098E+03
1.476649960E+01  2.642101074E+03
1.477667873E+01  2.638369873E+03
1.478685786E+01  2.635352539E+03
1.479703699E+01  2.634463867E+03
1.480721612E+01  2.634989014E+03
1.481739525E+01  2.635903320E+03
1.482757438E+01  2.635589844E+03
1.483775351E+01  2.632124756E+03
1.484793264E+01  2.626591797E+03
1.485811177E+01  2.623532471E+03
1.486829090E+01  2.623153076E+03
1.487847003E+01  2.621445068E+03
1.488864916E+01  2.619141602E+03
1.489882830E+01  2.617167480E+03
1.490900743E+01  2.616699951E+03
1.491918656E+01  2.615494873E+03
1.492936569E+01  2.613886230E+03
1.493954482E+01  2.611090088E+03
1.494972395E+01  2.608155518E+03
1.495990308E+01  2.608265869E+03
1.497008221E+01  2.608261475E+03
1.498026134E+01  2.606000244E+03
1.499044047E+01  2.602197266E+03
1.500061960E+01  2.600894531E+03
1.501079873E+01  2.600523193E+03
1.502097786E+01  2.597628906E+03
1.503115699E+01  2.596294922E+03
1.504133612E+01  2.594557373E+03
1.505151525E+01  2.592236328E+03
1.506169439E+01  2.589494141E+03
1.507187352E+01  2.586909424E+03
1.508205265E+01  2.586747559E+03
1.509223178E+01  2.584945557E+03
1.510241091E+01  2.584750977E+03
1.511259004E+01  2.584409424E+03
1.512276917E+01  2.584399658E+03
1.513294830E+01  2.584019531E+03
1.514312743E+01  2.581056152E+03
1.515330656E+01  2.576403564E+03
1.516348569E+01  2.572776123E+03
1.517366482E+01  2.573901855E+03
1.518384395E+01  2.573447998E+03
1.519402308E+01  2.570931152E+03
1.520420221E+01  2.569027100E+03
1.521438134E+01  2.568406250E+03
1.522456048E+01  2.567720459E+03
1.523473961E+01  2.569883789E+03
1.524491874E+01  2.569202393E+03
1.525509787E+01  2.565939941E+03
1.526527700E+01  2.562204102E+03
1.527545613E+01  2.559918701E+03
1.528563526E+01  2.556785400E+03
1.529581439E+01  2.553052246E+03
1.530599352E+01  2.551894531E+03
1.531617265E+01  2.553085938E+03
1.532635178E+01  2.554172852E+03
1.533653091E+01  2.553771973E+03
1.534671004E+01  2.551113525E+03
1.535688917E+01  2.546924316E+03
1.536706830E+01  2.545597168E+03
1.537724743E+01  2.546962158E+03
1.538742657E+01  2.547043213E+03
1.539760570E+01  2.543357910E+03
1.540778483E+01  2.541799316E+03
1.541796396E+01  2.540159424E+03
1.542814309E+01  2.539597412E+03
1.543832222E+01  2.540250000E+03
1.544850135E+01  2.539598389E+03
1.545868048E+01  2.537621826E+03
1.546885961E+01  2.536258789E+03
1.547903874E+01  2.535048584E+03
1.548921787E+01  2.531718018E+03
1.549939700E+01  2.528226074E+03
1.550957613E+01  2.526020752E+03
1.551975526E+01  2.522740967E+03
1.552993439E+01  2.521390625E+03
1.554011352E+01  2.521464355E+03
1.555029266E+01  2.518384033E+03
1.556047179E+01  2.517328857E+03
1.557065092E+01  2.517608643E+03
1.558083005E+01  2.518676758E+03
1.559100918E+01  2.518972656E+03
1.560118831E+01  2.518387939E+03
1.561136744E+01  2.516500488E+03
1.562154657E+01  2.513430664E+03
1.563172570E+01  2.511955078E+03
1.564190483E+01  2.511914062E+03
1.565208396E+01  2.510148926E+03
1.566226309E+01  2.507982666E+03
1.567244222E+01  2.508274414E+03
1.568262135E+01  2.505228516E+03
1.569280048E+01  2.502142822E+03
1.570297961E+01  2.501148926E+03
1.571315875E+01  2.501489014E+03
1.572333788E+01  2.498315430E+03
1.573351701E+01  2.496050049E+03
1.574369614E+01  2.496197998E+03
1.575387527E+01  2.492459717E+03
1.576405440E+01  2.489779297E+03
1.577423353E+01  2.489416016E+03
1.578441266E+01  2.488706787E+03
1.579459179E+01  2.487252930E+03
1.580477092E+01  2.485507568E+03
1.581495005E+01  2.482797363E+03
1.582512918E+01  2.480983398E+03
1.583530831E+01  2.479711426E+03
1.584548744E+01  2.479512939E+03
1.585566657E+01  2.477685791E+03
1.586584570E+01  2.475743164E+03
1.587602483E+01  2.474056152E+03
1.588620397E+01  2.472158447E+03
1.589638310E+01  2.472125244E+03
1.590656223E+01  2.473038818E+03
1.591674136E+01  2.472244629E+03
1.592692049E+01  2.468781250E+03
1.593709962E+01  2.466103516E+03
1.594727875E+01  2.465281738E+03
1.595745788E+01  2.462208008E+03
1.596763701E+01  2.457816162E+03
1.597781614E+01  2.457356934E+03
1.598799527E+01  2.457617432E+03
1.599817440E+01  2.458265625E+03
1.600835353E+01  2.457241455E+03
1.601853266E+01  2.454623779E+03
1.602871179E+01  2.451845947E+03
1.603889092E+01  2.451159180E+03
1.604907006E+01  2.450271240E+03
1.605924919E+01  2.447773193E+03
1.606942832E+01  2.446450439E+03
1.607960745E+01  2.445826172E+03
1.608978658E+01  2.443096680E+03
1.609996571E+01  2.438465820E+03
1.611014484E+01  2.436923340E+03
1.612032397E+01  2.437338135E+03
1.613050310E+01  2.437630127E+03
1.614068223E+01  2.438588623E+03
1.615086136E+01  2.439068604E+03
1.616104049E+01  2.437374512E+03
1.617121962E+01  2.433933105E+03
1.618139875E+01  2.430934082E+03
1.619157788E+01  2.428559326E+03
1.620175701E+01  2.427301758E+03
1.621193615E+01  2.425977295E+03
1.622211528E+01  2.425047607E+03
1.623229441E+01  2.423906494E+03
1.624247354E+01  2.424454590E+03
1.625265267E+01  2.426660400E+03
1.626283180E+01  2.428329590E+03
1.627301093E+01  2.424528564E+03
1.628319006E+01  2.421064453E+03
1.629336919E+01  2.418578369E+03
1.630354832E+01  2.417107666E+03
1.631372745E+01  2.415374268E+03
1.632390658E+01  2.414066650E+03
1.633408571E+01  2.413208008E+03
1.634426484E+01  2.413257080E+03
1.635444397E+01  2.411040283E+03
1.636462310E+01  2.410437500E+03
1.637480224E+01  2.410372803E+03
1.638498137E+01  2.410354980E+03
1.639516050E+01  2.410181396E+03
1.640533963E+01  2.408252686E+03
1.641551876E+01  2.407385498E+03
1.642569789E+01  2.406646729E+03
1.643587702E+01  2.405237305E+03
1.644605615E+01  2.400510010E+03
1.645623528E+01  2.395557617E+03
1.646641441E+01  2.393196777E+03
1.647659354E+01  2.392988525E+03
1.648677267E+01  2.391636230E+03
1.649695180E+01  2.389919434E+03
1.650713093E+01  2.389303223E+03
1.651731006E+01  2.390812012E+03
1.652748919E+01  2.390875732E+03
1.653766833E+01  2.388723145E+03
1.654784746E+01  2.387872070E+03
1.655802659E+01  2.385925049E+03
1.656820572E+01  2.384489258E+03
1.657838485E+01  2.383327881E+03
1.658856398E+01  2.381255127E+03
1.659874311E+01  2.377626953E+03
1.660892224E+01  2.377663086E+03
1.661910137E+01  2.377473877E+03
1.662928050E+01  2.374804688E+03
1.663945963E+01  2.374271240E+03
1.664963876E+01  2.373697266E+03
1.665981789E+01  2.370674072E+03
1.666999702E+01  2.367949463E+03
1.668017615E+01  2.367581787E+03
1.669035528E+01  2.365826172E+03
1.670053442E+01  2.364669922E+03
1.671071355E+01  2.364607178E+03
1.672089268E+01  2.364328613E+03
1.673107181E+01  2.363334717E+03
1.674125094E+01  2.364502441E+03
1.675143007E+01  2.363530029E+03
1.676160920E+01  2.361558350E+03
1.677178833E+01  2.359606445E+03
1.678196746E+01  2.358184082E+03
1.679214659E+01  2.355986816E+03
1.680232572E+01  2.353306152E+03
1.681250485E+01  2.353403320E+03
1.682268398E+01  2.353872559E+03
1.683286311E+01  2.352927246E+03
1.684304224E+01  2.349945557E+03
1.685322137E+01  2.347515381E+03
1.686340050E+01  2.346462158E+03
1.687357964E+01  2.347329102E+03
1.688375877E+01  2.345862305E+03
1.689393790E+01  2.344090332E+03
1.690411703E+01  2.343071289E+03
1.691429616E+01  2.341125977E+03
1.692447529E+01  2.338642334E+03
1.693465442E+01  2.337834229E+03
1.694483355E+01  2.337967773E+03
1.695501268E+01  2.336913330E+03
1.696519181E+01  2.336354248E+03
1.697537094E+01  2.334808105E+03
1.698555007E+01  2.333149658E+03
1.699572920E+01  2.329821777E+03
1.700590833E+01  2.328538086E+03
1.701608746E+01  2.328038818E+03
1.702626659E+01  2.327052246E+03
1.703644573E+01  2.324935059E+03
1.704662486E+01  2.323009033E+03
1.705680399E+01  2.321385010E+03
1.706698312E+01  2.320080811E+03
1.707716225E+01  2.319577637E+03
1.708734138E+01  2.317566406E+03
1.709752051E+01  2.315532227E+03
1.710769964E+01  2.314988770E+03
1.711787877E+01  2.313351807E+03
1.712805790E+01  2.312040771E+03
1.713823703E+01  2.312046143E+03
1.714841616E+01  2.309867676E+03
1.715859529E+01  2.309317139E+03
1.716877442E+01  2.309547363E+03
1.717895355E+01  2.308489258E+03
1.718913268E+01  2.305848877E+03
1.719931182E+01  2.305270020E+03
1.720949095E+01  2.306644287E+03
1.721967008E+01  2.305188232E+03
1.722984921E+01  2.302811035E+03
1.724002834E+01  2.303247070E+03
1.725020747E+01  2.303191406E+03
1.726038660E+01  2.300779297E+03
1.727056573E+01  2.298746094E+03
1.728074486E+01  2.297818359E+03
1.729092399E+01  2.297343750E+03
1.730110312E+01  2.297413574E+03
1.731128225E+01  2.296686279E+03
1.732146138E+01  2.294989990E+03
1.733164051E+01  2.294311279E+03
1.734181964E+01  2.293064697E+03
1.735199877E+01  2.291081299E+03
1.736217791E+01  2.290181152E+03
1.737235704E+01  2.289554688E+03
1.738253617E+01  2.288286865E+03
1.739271530E+01  2.286903564E+03
1.740289443E+01  2.287472168E+03
1.741307356E+01  2.288899658E+03
1.742325269E+01  2.288927490E+03
1.743343182E+01  2.288208740E+03
1.744361095E+01  2.286081055E+03
1.745379008E+01  2.283484619E+03
1.746396921E+01  2.282510986E+03
1.747414834E+01  2.282560059E+03
1.748432747E+01  2.280050049E+03
1.749450660E+01  2.275889893E+03
1.750468573E+01  2.275890137E+03
1.751486486E+01  2.277491699E+03
1.752504400E+01  2.276310547E+03
1.753522313E+01  2.273594482E+03
1.754540226E+01  2.269749023E+03
1.755558139E+01  2.267114258E+03
1.756576052E+01  2.268349609E+03
1.757593965E+01  2.269156250E+03
1.758611878E+01  2.267700195E+03
1.759629791E+01  2.264061279E+03
1.760647704E+01  2.262614502E+03
1.761665617E+01  2.262608398E+03
1.762683530E+01  2.262543701E+03
1.763701443E+01  2.261713867E+03
1.764719356E+01  2.260935303E+03
1.765737269E+01  2.260318359E+03
1.766755182E+01  2.259231445E+03
1.767773095E+01  2.258766113E+03
1.768791009E+01  2.256736816E+03
1.769808922E+01  2.253417236E+03
1.770826835E+01  2.251122070E+03
1.771844748E+01  2.252274658E+03
1.772862661E+01  2.253631592E+03
1.773880574E+01  2.254088623E+03
1.774898487E+01  2.252850830E+03
1.775916400E+01  2.251472900E+03
1.776934313E+01  2.250712646E+03
1.777952226E+01  2.249614990E+03
1.778970139E+01  2.248648438E+03
1.779988052E+01  2.248315186E+03
1.781005965E+01  2.246775635E+03
1.782023878E+01  2.245298828E+03
1.783041791E+01  2.246799805E+03
1.784059704E+01  2.247003662E+03
1.785077618E+01  2.245704834E+03
1.786095531E+01  2.242433838E+03
1.787113444E+01  2.240618164E+03
1.788131357E+01  2.239720947E+03
1.789149270E+01  2.238784180E+03
1.790167183E+01  2.238433350E+03
1.791185096E+01  2.235850342E+03
1.792203009E+01  2.233379150E+03
1.793220922E+01  2.231724121E+03
1.794238835E+01  2.229722656E+03
1.795256748E+01  2.229888672E+03
1.796274661E+01  2.231993652E+03
1.797292574E+01  2.231085693E+03
1.798310487E+01  2.228732178E+03
1.799328400E+01  2.228518555E+03
1.800346313E+01  2.230123047E+03
1.801364226E+01  2.230253906E+03
1.802382140E+01  2.231177979E+03
1.803400053E+01  2.234039307E+03
1.804417966E+01  2.236374756E+03
1.805435879E+01  2.239437012E+03
1.806453792E+01  2.241105225E+03
1.807471705E+01  2.242686035E+03
1.808489618E+01  2.246788818E+03
1.809507531E+01  2.251610107E+03
1.810525444E+01  2.255961182E+03
1.811543357E+01  2.259495850E+03
1.812561270E+01  2.260617920E+03
1.813579183E+01  2.258450439E+03
1.814597096E+01  2.255263428E+03
1.815615009E+01  2.251098389E+03
1.816632922E+01  2.247037842E+03
1.817650835E+01  2.241135742E+03
1.818668749E+01  2.234742676E+03
1.819686662E+01  2.228592285E+03
1.820704575E+01  2.222692139E+03
1.821722488E+01  2.218142578E+03
1.822740401E+01  2.214861084E+03
1.823758314E+01  2.211718018E+03
1.824776227E+01  2.208950439E+03
1.825794140E+01  2.208264648E+03
1.826812053E+01  2.206466064E+03
1.827829966E+01  2.202224854E+03
1.828847879E+01  2.200298096E+03
1.829865792E+01  2.201760742E+03
1.830883705E+01  2.201400146E+03
1.831901618E+01  2.199009033E+03
1.832919531E+01  2.195860352E+03
1.833937444E+01  2.193651855E+03
1.834955358E+01  2.194319580E+03
1.835973271E+01  2.195170410E+03
1.836991184E+01  2.194500000E+03
1.838009097E+01  2.191698730E+03
1.839027010E+01  2.190562500E+03
1.840044923E+01  2.189124756E+03
1.841062836E+01  2.188485352E+03
1.842080749E+01  2.187565430E+03
1.843098662E+01  2.184915527E+03
1.844116575E+01  2.182397217E+03
1.845134488E+01  2.180918457E+03
1.846152401E+01  2.181483887E+03
1.847170314E+01  2.179559082E+03
1.848188227E+01  2.178265137E+03
1.849206140E+01  2.177591797E+03
1.850224053E+01  2.177123535E+03
1.851241967E+01  2.177721924E+03
1.852259880E+01  2.178022949E+03
1.853277793E+01  2.175441406E+03
1.854295706E+01  2.173007812E+03
1.855313619E+01  2.172088623E+03
1.856331532E+01  2.169570068E+03
1.857349445E+01  2.167900146E+03
1.858367358E+01  2.168236328E+03
1.859385271E+01  2.168335938E+03
1.860403184E+01  2.167609619E+03
1.861421097E+01  2.166543701E+03
1.862439010E+01  2.165335693E+03
1.863456923E+01  2.164145264E+03
1.864474836E+01  2.163990234E+03
1.865492749E+01  2.163267822E+03
1.866510662E+01  2.161740723E+03
1.867528576E+01  2.161422607E+03
1.868546489E+01  2.161965332E+03
1.869564402E+01  2.160469238E+03
1.870582315E+01  2.159962891E+03
1.871600228E+01  2.159380859E+03
1.872618141E+01  2.158513672E+03
1.873636054E+01  2.158195068E+03
1.874653967E+01  2.160208740E+03
1.875671880E+01  2.162167969E+03
1.876689793E+01  2.161625244E+03
1.877707706E+01  2.160769287E+03
1.878725619E+01  2.158310547E+03
1.879743532E+01  2.156940918E+03
1.880761445E+01  2.157444092E+03
1.881779358E+01  2.159779053E+03
1.882797271E+01  2.161743652E+03
1.883815185E+01  2.161865723E+03
1.884833098E+01  2.163864502E+03
1.885851011E+01  2.167170898E+03
1.886868924E+01  2.168262207E+03
1.887886837E+01  2.168738281E+03
1.888904750E+01  2.170385742E+03
1.889922663E+01  2.173533936E+03
1.890940576E+01  2.177643555E+03
1.891958489E+01  2.178270264E+03
1.892976402E+01  2.176438965E+03
1.893994315E+01  2.175919189E+03
1.895012228E+01  2.176456299E+03
1.896030141E+01  2.178233643E+03
1.897048054E+01  2.178840332E+03
1.898065967E+01  2.177344238E+03
1.899083880E+01  2.174319580E+03
1.900101793E+01  2.172184326E+03
1.901119707E+01  2.171451172E+03
1.902137620E+01  2.170977295E+03
1.903155533E+01  2.169966553E+03
1.904173446E+01  2.166131836E+03
1.905191359E+01  2.162841797E+03
1.906209272E+01  2.160358154E+03
1.907227185E+01  2.159288330E+03
1.908245098E+01  2.156863037E+03
1.909263011E+01  2.155041748E+03
1.910280924E+01  2.154123047E+03
1.911298837E+01  2.150779785E+03
1.912316750E+01  2.147703857E+03
1.913334663E+01  2.145358643E+03
1.914352576E+01  2.142476074E+03
1.915370489E+01  2.140608398E+03
1.916388402E+01  2.140991455E+03
1.917406316E+01  2.140158447E+03
1.918424229E+01  2.137113037E+03
1.919442142E+01  2.134518066E+03
1.920460055E+01  2.132993164E+03
1.921477968E+01  2.130828125E+03
1.922495881E+01  2.130008301E+03
1.923513794E+01  2.130718750E+03
1.924531707E+01  2.130039307E+03
1.925549620E+01  2.128844971E+03
1.926567533E+01  2.125749756E+03
1.927585446E+01  2.122788818E+03
1.928603359E+01  2.119773193E+03
1.929621272E+01  2.118259277E+03
1.930639185E+01  2.117101562E+03
1.931657098E+01  2.116398438E+03
1.932675011E+01  2.117077637E+03
1.933692925E+01  2.115200928E+03
1.934710838E+01  2.112892090E+03
1.935728751E+01  2.111653564E+03
1.936746664E+01  2.112156006E+03
1.937764577E+01  2.109654297E+03
1.938782490E+01  2.107485840E+03
1.939800403E+01  2.106429443E+03
1.940818316E+01  2.105813965E+03
1.941836229E+01  2.106563721E+03
1.942854142E+01  2.105733154E+03
1.943872055E+01  2.103674072E+03
1.944889968E+01  2.102554199E+03
1.945907881E+01  2.103176270E+03
1.946925794E+01  2.102745850E+03
1.947943707E+01  2.102056152E+03
1.948961620E+01  2.102867920E+03
1.949979534E+01  2.102768066E+03
1.950997447E+01  2.100790527E+03
1.952015360E+01  2.100020020E+03
1.953033273E+01  2.099559570E+03
1.954051186E+01  2.097579102E+03
1.955069099E+01  2.096986816E+03
1.956087012E+01  2.096319092E+03
1.957104925E+01  2.096723145E+03
1.958122838E+01  2.098845215E+03
1.959140751E+01  2.100674805E+03
1.960158664E+01  2.100948975E+03
1.961176577E+01  2.101752441E+03
1.962194490E+01  2.103884521E+03
1.963212403E+01  2.104918701E+03
1.964230316E+01  2.105548828E+03
1.965248229E+01  2.106256836E+03
1.966266143E+01  2.105728271E+03
1.967284056E+01  2.103466064E+03
1.968301969E+01  2.102661865E+03
1.969319882E+01  2.102087402E+03
1.970337795E+01  2.100416260E+03
1.971355708E+01  2.097343506E+03
1.972373621E+01  2.093419922E+03
1.973391534E+01  2.090203369E+03
1.974409447E+01  2.088964111E+03
1.975427360E+01  2.087579102E+03
1.976445273E+01  2.084522949E+03
1.977463186E+01  2.082756348E+03
1.978481099E+01  2.084562744E+03
1.979499012E+01  2.084563232E+03
1.980516925E+01  2.082627197E+03
1.981534838E+01  2.081347412E+03
1.982552752E+01  2.081292236E+03
1.983570665E+01  2.081841309E+03
1.984588578E+01  2.082714111E+03
1.985606491E+01  2.083143311E+03
1.986624404E+01  2.084309570E+03
1.987642317E+01  2.086336426E+03
1.988660230E+01  2.085867920E+03
1.989678143E+01  2.084826416E+03
1.990696056E+01  2.082176025E+03
1.991713969E+01  2.081348633E+03
1.992731882E+01  2.081245361E+03
1.993749795E+01  2.079414307E+03
1.994767708E+01  2.076093262E+03
1.995785621E+01  2.073501953E+03
1.996803534E+01  2.072832031E+03
1.997821447E+01  2.070920898E+03
1.998839360E+01  2.068839844E+03
1.999857274E+01  2.067324707E+03
2.000875187E+01  2.067114258E+03
2.001893100E+01  2.067402588E+03
2.002911013E+01  2.066996826E+03
2.003928926E+01  2.067919922E+03
2.004946839E+01  2.066527344E+03
2.005964752E+01  2.064564209E+03
2.006982665E+01  2.062278809E+03
2.008000578E+01  2.060766602E+03
2.009018491E+01  2.060665771E+03
2.010036404E+01  2.060346191E+03
2.011054317E+01  2.058371338E+03
2.012072230E+01  2.056091797E+03
2.013090143E+01  2.056151367E+03
2.014108056E+01  2.055707275E+03
2.015125969E+01  2.054855713E+03
2.016143883E+01  2.053276367E+03
2.017161796E+01  2.051531006E+03
2.018179709E+01  2.050637451E+03
2.019197622E+01  2.048993408E+03
2.020215535E+01  2.045041138E+03
2.021233448E+01  2.042866089E+03
2.022251361E+01  2.043852905E+03
2.023269274E+01  2.043501343E+03
2.024287187E+01  2.042352783E+03
2.025305100E+01  2.041032837E+03
2.026323013E+01  2.039734253E+03
2.027340926E+01  2.038131348E+03
2.028358839E+01  2.037487061E+03
2.029376752E+01  2.038783936E+03
2.030394665E+01  2.038182129E+03
2.031412578E+01  2.036435181E+03
2.032430492E+01  2.035291870E+03
2.033448405E+01  2.034100708E+03
2.034466318E+01  2.033076538E+03
2.035484231E+01  2.035358398E+03
2.036502144E+01  2.037056641E+03
2.037520057E+01  2.035739990E+03
2.038537970E+01  2.033539429E+03
2.039555883E+01  2.030252197E+03
2.040573796E+01  2.026911011E+03
2.041591709E+01  2.026855957E+03
2.042609622E+01  2.026618164E+03
2.043627535E+01  2.024515869E+03
2.044645448E+01  2.023427368E+03
2.045663361E+01  2.022443604E+03
2.046681274E+01  2.020331665E+03
2.047699187E+01  2.021032715E+03
2.048717101E+01  2.022151489E+03
2.049735014E+01  2.023159668E+03
2.050752927E+01  2.024104858E+03
2.051770840E+01  2.024852539E+03
2.052788753E+01  2.025111206E+03
2.053806666E+01  2.025004883E+03
2.054824579E+01  2.026089600E+03
2.055842492E+01  2.025436279E+03
2.056860405E+01  2.025408325E+03
2.057878318E+01  2.025948853E+03
2.058896231E+01  2.027009521E+03
2.059914144E+01  2.028464600E+03
2.060932057E+01  2.031216797E+03
2.061949970E+01  2.033357300E+03
2.062967883E+01  2.034046265E+03
2.063985796E+01  2.034796387E+03
2.065003710E+01  2.034276001E+03
2.066021623E+01  2.034107544E+03
2.067039536E+01  2.033695312E+03
2.068057449E+01  2.031994385E+03
2.069075362E+01  2.029385010E+03
2.070093275E+01  2.025699951E+03
2.071111188E+01  2.020858276E+03
2.072129101E+01  2.016706055E+03
2.073147014E+01  2.014388428E+03
2.074164927E+01  2.010531982E+03
2.075182840E+01  2.008060425E+03
2.076200753E+01  2.008015015E+03
2.077218666E+01  2.009182129E+03
2.078236579E+01  2.008444580E+03
2.079254492E+01  2.007105469E+03
2.080272405E+01  2.006378540E+03
2.081290319E+01  2.004634766E+03
2.082308232E+01  2.004906494E+03
2.083326145E+01  2.006370850E+03
2.084344058E+01  2.006981567E+03
2.085361971E+01  2.006473511E+03
2.086379884E+01  2.003313354E+03
2.087397797E+01  1.999651245E+03
2.088415710E+01  1.997972534E+03
2.089433623E+01  1.997163208E+03
2.090451536E+01  1.996351440E+03
2.091469449E+01  1.995475098E+03
2.092487362E+01  1.995746948E+03
2.093505275E+01  1.995918457E+03
2.094523188E+01  1.994154419E+03
2.095541101E+01  1.992401245E+03
2.096559014E+01  1.991401123E+03
2.097576927E+01  1.990278198E+03
2.098594841E+01  1.990638184E+03
2.099612754E+01  1.990399780E+03
2.100630667E+01  1.988793091E+03
2.101648580E+01  1.987926270E+03
2.102666493E+01  1.987000610E+03
2.103684406E+01  1.986884155E+03
2.104702319E+01  1.986241333E+03
2.105720232E+01  1.984978882E+03
2.106738145E+01  1.983975464E+03
2.107756058E+01  1.982583618E+03
2.108773971E+01  1.980693115E+03
2.109791884E+01  1.977087402E+03
2.110809797E+01  1.975322998E+03
2.111827710E+01  1.974347900E+03
2.112845623E+01  1.973274292E+03
2.113863536E+01  1.973578857E+03
2.114881450E+01  1.975684814E+03
2.115899363E+01  1.978166504E+03
2.116917276E+01  1.979952759E+03
2.117935189E+01  1.980750732E+03
2.118953102E+01  1.978993530E+03
2.119971015E+01  1.975875122E+03
2.120988928E+01  1.973047729E+03
2.122006841E+01  1.970414917E+03
2.123024754E+01  1.968862793E+03
2.124042667E+01  1.968330078E+03
2.125060580E+01  1.967661987E+03
2.126078493E+01  1.967656128E+03
2.127096406E+01  1.969515625E+03
2.128114319E+01  1.969957397E+03
2.129132232E+01  1.967788086E+03
2.130150145E+01  1.966671997E+03
2.131168059E+01  1.968253052E+03
2.132185972E+01  1.969678955E+03
2.133203885E+01  1.969351196E+03
2.134221798E+01  1.968068970E+03
2.135239711E+01  1.965888184E+03
2.136257624E+01  1.964420654E+03
2.137275537E+01  1.963013672E+03
2.138293450E+01  1.961549316E+03
2.139311363E+01  1.961910278E+03
2.140329276E+01  1.960251221E+03
2.141347189E+01  1.959912354E+03
2.142365102E+01  1.960510254E+03
2.143383015E+01  1.960554443E+03
2.144400928E+01  1.960708130E+03
2.145418841E+01  1.960005615E+03
2.146436754E+01  1.958031250E+03
2.147454668E+01  1.956182495E+03
2.148472581E+01  1.955314697E+03
2.149490494E+01  1.952704956E+03
2.150508407E+01  1.951468872E+03
2.151526320E+01  1.955203979E+03
2.152544233E+01  1.957302734E+03
2.153562146E+01  1.955150146E+03
2.154580059E+01  1.951332764E+03
2.155597972E+01  1.949498535E+03
2.156615885E+01  1.948321289E+03
2.157633798E+01  1.947920410E+03
2.158651711E+01  1.948745850E+03
2.159669624E+01  1.948256592E+03
2.160687537E+01  1.946943237E+03
2.161705450E+01  1.945780029E+03
2.162723363E+01  1.945515991E+03
2.163741277E+01  1.945497192E+03
2.164759190E+01  1.945860107E+03
2.165777103E+01  1.944838379E+03
2.166795016E+01  1.943241943E+03
2.167812929E+01  1.944467896E+03
2.168830842E+01  1.945142578E+03
2.169848755E+01  1.946153687E+03
2.170866668E+01  1.948237915E+03
2.171884581E+01  1.946822388E+03
2.172902494E+01  1.944040771E+03
2.173920407E+01  1.943225098E+03
2.174938320E+01  1.943499023E+03
2.175956233E+01  1.943128784E+03
2.176974146E+01  1.941980713E+03
2.177992059E+01  1.938323486E+03
2.179009972E+01  1.935209229E+03
2.180027886E+01  1.935480225E+03
2.181045799E+01  1.936570923E+03
2.182063712E+01  1.937412598E+03
2.183081625E+01  1.938229614E+03
2.184099538E+01  1.938606445E+03
2.185117451E+01  1.937020264E+03
2.186135364E+01  1.936123779E+03
2.187153277E+01  1.935924194E+03
2.188171190E+01  1.935569702E+03
2.189189103E+01  1.935195557E+03
2.190207016E+01  1.934801025E+03
2.191224929E+01  1.934854248E+03
2.192242842E+01  1.934586914E+03
2.193260755E+01  1.933864990E+03
2.194278668E+01  1.932296143E+03
2.195296581E+01  1.929623291E+03
2.196314495E+01  1.927176880E+03
2.197332408E+01  1.925373779E+03
2.198350321E+01  1.925541138E+03
2.199368234E+01  1.927426147E+03
2.200386147E+01  1.927861450E+03
2.201404060E+01  1.927693359E+03
2.202421973E+01  1.926550293E+03
2.203439886E+01  1.924648560E+03
2.204457799E+01  1.923671021E+03
2.205475712E+01  1.923212769E+03
2.206493625E+01  1.922590088E+03
2.207511538E+01  1.922931152E+03
2.208529451E+01  1.923556763E+03
2.209547364E+01  1.921517090E+03
2.210565277E+01  1.919546021E+03
2.211583190E+01  1.919168213E+03
2.212601103E+01  1.919309692E+03
2.213619017E+01  1.919895752E+03
2.214636930E+01  1.920788940E+03
2.215654843E+01  1.919755249E+03
2.216672756E+01  1.918610718E+03
2.217690669E+01  1.918946045E+03
2.218708582E+01  1.917470947E+03
2.219726495E+01  1.914470459E+03
2.220744408E+01  1.912356812E+03
2.221762321E+01  1.911656982E+03
2.222780234E+01  1.910837891E+03
2.223798147E+01  1.910563965E+03
2.224816060E+01  1.911334595E+03
2.225833973E+01  1.912608521E+03
2.226851886E+01  1.913842896E+03
2.227869799E+01  1.913525269E+03
2.228887712E+01  1.912828491E+03
2.229905626E+01  1.914044922E+03
2.230923539E+01  1.913053955E+03
2.231941452E+01  1.909867920E+03
2.232959365E+01  1.907907471E+03
2.233977278E+01  1.907680908E+03
2.234995191E+01  1.907751831E+03
2.236013104E+01  1.907417236E+03
2.237031017E+01  1.906318115E+03
2.238048930E+01  1.903511353E+03
2.239066843E+01  1.900315063E+03
2.240084756E+01  1.897828613E+03
2.241102669E+01  1.896627686E+03
2.242120582E+01  1.897933838E+03
2.243138495E+01  1.898133301E+03
2.244156408E+01  1.895583008E+03
2.245174321E+01  1.894315918E+03
2.246192235E+01  1.894790649E+03
2.247210148E+01  1.893696777E+03
2.248228061E+01  1.892962646E+03
2.249245974E+01  1.894757446E+03
2.250263887E+01  1.895398193E+03
2.251281800E+01  1.895635742E+03
2.252299713E+01  1.895019043E+03
2.253317626E+01  1.892945068E+03
2.254335539E+01  1.892570923E+03
2.255353452E+01  1.891407227E+03
2.256371365E+01  1.889849854E+03
2.257389278E+01  1.889969238E+03
2.258407191E+01  1.890781006E+03
2.259425104E+01  1.890519287E+03
2.260443017E+01  1.889839966E+03
2.261460930E+01  1.891055420E+03
2.262478844E+01  1.890754272E+03
2.263496757E+01  1.889717896E+03
2.264514670E+01  1.889965576E+03
2.265532583E+01  1.889369263E+03
2.266550496E+01  1.887358521E+03
2.267568409E+01  1.885804321E+03
2.268586322E+01  1.885469604E+03
2.269604235E+01  1.885602905E+03
2.270622148E+01  1.886606567E+03
2.271640061E+01  1.885859253E+03
2.272657974E+01  1.884402832E+03
2.273675887E+01  1.884294312E+03
2.274693800E+01  1.884143311E+03
2.275711713E+01  1.884482056E+03
2.276729626E+01  1.884420898E+03
2.277747539E+01  1.883840820E+03
2.278765453E+01  1.883262085E+03
2.279783366E+01  1.882315918E+03
2.280801279E+01  1.881952148E+03
2.281819192E+01  1.880474243E+03
2.282837105E+01  1.878633911E+03
2.283855018E+01  1.877200684E+03
2.284872931E+01  1.876818848E+03
2.285890844E+01  1.878030029E+03
2.286908757E+01  1.876658813E+03
2.287926670E+01  1.875080322E+03
2.288944583E+01  1.875349609E+03
2.289962496E+01  1.875012451E+03
2.290980409E+01  1.874757812E+03
2.291998322E+01  1.874748779E+03
2.293016235E+01  1.873402466E+03
2.294034148E+01  1.873125244E+03
2.295052062E+01  1.875349976E+03
2.296069975E+01  1.876476929E+03
2.297087888E+01  1.875723755E+03
2.298105801E+01  1.876057373E+03
2.299123714E+01  1.875476685E+03
2.300141627E+01  1.874030029E+03
2.301159540E+01  1.871744385E+03
2.302177453E+01  1.869889893E+03
2.303195366E+01  1.870430054E+03
2.304213279E+01  1.870653687E+03
2.305231192E+01  1.869997192E+03
2.306249105E+01  1.869077759E+03
2.307267018E+01  1.869195557E+03
2.308284931E+01  1.869557129E+03
2.309302844E+01  1.868485962E+03
2.310320757E+01  1.866806519E+03
2.311338670E+01  1.866441528E+03
2.312356584E+01  1.867768555E+03
2.313374497E+01  1.869295532E+03
2.314392410E+01  1.870332764E+03
2.315410323E+01  1.869947998E+03
2.316428236E+01  1.867255249E+03
2.317446149E+01  1.865168457E+03
2.318464062E+01  1.865873413E+03
2.319481975E+01  1.867652222E+03
2.320499888E+01  1.867370239E+03
2.321517801E+01  1.865636353E+03
2.322535714E+01  1.865022217E+03
2.323553627E+01  1.864237061E+03
2.324571540E+01  1.864102905E+03
2.325589453E+01  1.865225220E+03
2.326607366E+01  1.865057617E+03
2.327625279E+01  1.863276733E+03
2.328643193E+01  1.861997925E+03
2.329661106E+01  1.860870361E+03
2.330679019E+01  1.860643188E+03
2.331696932E+01  1.862545898E+03
2.332714845E+01  1.864133301E+03
2.333732758E+01  1.863270264E+03
2.334750671E+01  1.863705811E+03
2.335768584E+01  1.865664673E+03
2.336786497E+01  1.868978027E+03
2.337804410E+01  1.872045044E+03
2.338822323E+01  1.875127197E+03
2.339840236E+01  1.878677856E+03
2.340858149E+01  1.883349731E+03
2.341876062E+01  1.887591431E+03
2.342893975E+01  1.892372559E+03
2.343911888E+01  1.898692749E+03
2.344929802E+01  1.903434082E+03
2.345947715E+01  1.905471313E+03
2.346965628E+01  1.908029785E+03
2.347983541E+01  1.908865601E+03
2.349001454E+01  1.908392822E+03
2.350019367E+01  1.908160034E+03
2.351037280E+01  1.909115479E+03
2.352055193E+01  1.908176636E+03
2.353073106E+01  1.905658936E+03
2.354091019E+01  1.902744263E+03
2.355108932E+01  1.898829712E+03
2.356126845E+01  1.895189331E+03
2.357144758E+01  1.890477173E+03
2.358162671E+01  1.885387817E+03
2.359180584E+01  1.882170654E+03
2.360198497E+01  1.879667969E+03
2.361216411E+01  1.877597290E+03
2.362234324E+01  1.874534668E+03
2.363252237E+01  1.871256226E+03
2.364270150E+01  1.869664551E+03
2.365288063E+01  1.867665894E+03
2.366305976E+01  1.865116211E+03
2.367323889E+01  1.864044800E+03
2.368341802E+01  1.862583618E+03
2.369359715E+01  1.859464844E+03
2.370377628E+01  1.855774170E+03
2.371395541E+01  1.853627930E+03
2.372413454E+01  1.851214478E+03
2.373431367E+01  1.847709839E+03
2.374449280E+01  1.844893677E+03
2.375467193E+01  1.842633179E+03
2.376485106E+01  1.841098755E+03
2.377503020E+01  1.840280396E+03
2.378520933E+01  1.839549072E+03
2.379538846E+01  1.837252686E+03
2.380556759E+01  1.835000732E+03
2.381574672E+01  1.832290405E+03
2.382592585E+01  1.830274048E+03
2.383610498E+01  1.828566528E+03
2.384628411E+01  1.826721436E+03
2.385646324E+01  1.826958496E+03
2.386664237E+01  1.828515991E+03
2.387682150E+01  1.827534790E+03
2.388700063E+01  1.826618042E+03
2.389717976E+01  1.826878296E+03
2.390735889E+01  1.826114380E+03
2.391753802E+01  1.824723511E+03
2.392771715E+01  1.823743408E+03
2.393789629E+01  1.823250366E+03
2.394807542E+01  1.821446289E+03
2.395825455E+01  1.818358765E+03
2.396843368E+01  1.815887329E+03
2.397861281E+01  1.815383545E+03
2.398879194E+01  1.818091919E+03
2.399897107E+01  1.820171875E+03
2.400915020E+01  1.820801514E+03
2.401932933E+01  1.820418945E+03
2.402950846E+01  1.819913818E+03
2.403968759E+01  1.820097290E+03
2.404986672E+01  1.818132690E+03
2.406004585E+01  1.815987305E+03
2.407022498E+01  1.815358032E+03
2.408040411E+01  1.815053467E+03
2.409058324E+01  1.813376465E+03
2.410076237E+01  1.812854370E+03
2.411094151E+01  1.813311279E+03
2.412112064E+01  1.812771606E+03
2.413129977E+01  1.811642456E+03
2.414147890E+01  1.810511230E+03
2.415165803E+01  1.809921265E+03
2.416183716E+01  1.809590454E+03
2.417201629E+01  1.808913452E+03
2.418219542E+01  1.810232300E+03
2.419237455E+01  1.810334106E+03
2.420255368E+01  1.808181274E+03
2.421273281E+01  1.806872314E+03
2.422291194E+01  1.806976929E+03
2.423309107E+01  1.807498901E+03
2.424327020E+01  1.805994141E+03
2.425344933E+01  1.804811157E+03
2.426362846E+01  1.804443970E+03
2.427380760E+01  1.802363892E+03
2.428398673E+01  1.801196045E+03
2.429416586E+01  1.801244385E+03
2.430434499E+01  1.802217041E+03
2.431452412E+01  1.802308594E+03
2.432470325E+01  1.799625000E+03
2.433488238E+01  1.797898193E+03
2.434506151E+01  1.798337769E+03
2.435524064E+01  1.797884644E+03
2.436541977E+01  1.796421387E+03
2.437559890E+01  1.796978882E+03
2.438577803E+01  1.797042847E+03
2.439595716E+01  1.794688354E+03
2.440613629E+01  1.793892334E+03
2.441631542E+01  1.793754028E+03
2.442649455E+01  1.791526978E+03
2.443667369E+01  1.790466919E+03
2.444685282E+01  1.790656860E+03
2.445703195E+01  1.790616821E+03
2.446721108E+01  1.790883667E+03
2.447739021E+01  1.790585449E+03
2.448756934E+01  1.790730835E+03
2.449774847E+01  1.790108032E+03
2.450792760E+01  1.789048096E+03
2.451810673E+01  1.787735840E+03
2.452828586E+01  1.787360718E+03
2.453846499E+01  1.788755615E+03
2.454864412E+01  1.788801147E+03
2.455882325E+01  1.786572266E+03
2.456900238E+01  1.784036011E+03
2.457918151E+01  1.783921143E+03
2.458936064E+01  1.784431396E+03
2.459953978E+01  1.784244141E+03
2.460971891E+01  1.784135864E+03
2.461989804E+01  1.784926758E+03
2.463007717E+01  1.784169922E+03
2.464025630E+01  1.783331177E+03
2.465043543E+01  1.782003296E+03
2.466061456E+01  1.780067871E+03
2.467079369E+01  1.778178345E+03
2.468097282E+01  1.777602173E+03
2.469115195E+01  1.778275146E+03
2.470133108E+01  1.778152100E+03
2.471151021E+01  1.777828003E+03
2.472168934E+01  1.777013428E+03
2.473186847E+01  1.776280640E+03
2.474204760E+01  1.775855591E+03
2.475222673E+01  1.774708008E+03
2.476240587E+01  1.773025757E+03
2.477258500E+01  1.771813599E+03
2.478276413E+01  1.770812744E+03
2.479294326E+01  1.770063843E+03
2.480312239E+01  1.770029541E+03
2.481330152E+01  1.770600586E+03
2.482348065E+01  1.770866211E+03
2.483365978E+01  1.770010498E+03
2.484383891E+01  1.768414673E+03
2.485401804E+01  1.767400146E+03
2.486419717E+01  1.767321655E+03
2.487437630E+01  1.765362061E+03
2.488455543E+01  1.762427368E+03
2.489473456E+01  1.761879761E+03
2.490491369E+01  1.762330078E+03
2.491509282E+01  1.760252319E+03
2.492527196E+01  1.757099731E+03
2.493545109E+01  1.757762207E+03
2.494563022E+01  1.759584473E+03
2.495580935E+01  1.759249512E+03
2.496598848E+01  1.758350220E+03
2.497616761E+01  1.758263550E+03
2.498634674E+01  1.757834961E+03
2.499652587E+01  1.756860107E+03
2.500670500E+01  1.755845215E+03
2.501688413E+01  1.755246704E+03
2.502706326E+01  1.753885864E+03
2.503724239E+01  1.751983521E+03
2.504742152E+01  1.751018433E+03
2.505760065E+01  1.749761841E+03
2.506777978E+01  1.749021118E+03
2.507795891E+01  1.748600708E+03
2.508813804E+01  1.748518188E+03
2.509831718E+01  1.747346558E+03
2.510849631E+01  1.745999756E+03
2.511867544E+01  1.744795654E+03
2.512885457E+01  1.743822632E+03
2.513903370E+01  1.742522949E+03
2.514921283E+01  1.742331909E+03
2.515939196E+01  1.742394653E+03
2.516957109E+01  1.742621582E+03
2.517975022E+01  1.743318115E+03
2.518992935E+01  1.743509521E+03
2.520010848E+01  1.742944092E+03
2.521028761E+01  1.742386719E+03
2.522046674E+01  1.740961060E+03
2.523064587E+01  1.739140259E+03
2.524082500E+01  1.738409302E+03
2.525100413E+01  1.738753662E+03
2.526118327E+01  1.737500854E+03
2.527136240E+01  1.735090942E+03
2.528154153E+01  1.735076416E+03
2.529172066E+01  1.735042480E+03
2.530189979E+01  1.733945068E+03
2.531207892E+01  1.731791016E+03
2.532225805E+01  1.729666138E+03
2.533243718E+01  1.730386230E+03
2.534261631E+01  1.729610229E+03
2.535279544E+01  1.727592041E+03
2.536297457E+01  1.728055054E+03
2.537315370E+01  1.728679810E+03
2.538333283E+01  1.727116821E+03
2.539351196E+01  1.724647583E+03
2.540369109E+01  1.723395508E+03
2.541387022E+01  1.721755127E+03
2.542404936E+01  1.719944702E+03
2.543422849E+01  1.719945801E+03
2.544440762E+01  1.720509766E+03
2.545458675E+01  1.721589966E+03
2.546476588E+01  1.722895996E+03
2.547494501E+01  1.723797119E+03
2.548512414E+01  1.722341675E+03
2.549530327E+01  1.719704224E+03
2.550548240E+01  1.718781250E+03
2.551566153E+01  1.717824585E+03
2.552584066E+01  1.717121094E+03
2.553601979E+01  1.717117798E+03
2.554619892E+01  1.715905640E+03
2.555637805E+01  1.714766479E+03
2.556655718E+01  1.714022095E+03
2.557673631E+01  1.711799561E+03
2.558691545E+01  1.709145264E+03
2.559709458E+01  1.709332397E+03
2.560727371E+01  1.710462646E+03
2.561745284E+01  1.711010498E+03
2.562763197E+01  1.710549194E+03
2.563781110E+01  1.708710327E+03
2.564799023E+01  1.708428345E+03
2.565816936E+01  1.709250977E+03
2.566834849E+01  1.707898193E+03
2.567852762E+01  1.706758667E+03
2.568870675E+01  1.706856567E+03
2.569888588E+01  1.705629150E+03
2.570906501E+01  1.703878174E+03
2.571924414E+01  1.703590088E+03
2.572942327E+01  1.704255493E+03
2.573960240E+01  1.704098511E+03
2.574978154E+01  1.702173462E+03
2.575996067E+01  1.701793091E+03
2.577013980E+01  1.703531616E+03
2.578031893E+01  1.702609863E+03
2.579049806E+01  1.700509766E+03
2.580067719E+01  1.700185303E+03
2.581085632E+01  1.699791504E+03
2.582103545E+01  1.700500000E+03
2.583121458E+01  1.700883057E+03
2.584139371E+01  1.698143677E+03
2.585157284E+01  1.696128418E+03
2.586175197E+01  1.695661987E+03
2.587193110E+01  1.694700806E+03
2.588211023E+01  1.693775635E+03
2.589228936E+01  1.691514038E+03
2.590246849E+01  1.689936523E+03
2.591264763E+01  1.690204102E+03
2.592282676E+01  1.691142212E+03
2.593300589E+01  1.690546021E+03
2.594318502E+01  1.689747192E+03
2.595336415E+01  1.690165039E+03
2.596354328E+01  1.690058716E+03
2.597372241E+01  1.689256836E+03
2.598390154E+01  1.687254395E+03
2.599408067E+01  1.684875366E+03
2.600425980E+01  1.684366577E+03
2.601443893E+01  1.683757202E+03
2.602461806E+01  1.682719727E+03
2.603479719E+01  1.684215332E+03
2.604497632E+01  1.685872925E+03
2.605515545E+01  1.685346924E+03
2.606533458E+01  1.684009033E+03
2.607551372E+01  1.683160278E+03
2.608569285E+01  1.683047485E+03
2.609587198E+01  1.682598267E+03
2.610605111E+01  1.681973145E+03
2.611623024E+01  1.681705566E+03
2.612640937E+01  1.681339355E+03
2.613658850E+01  1.680762573E+03
2.614676763E+01  1.680413330E+03
2.615694676E+01  1.680027466E+03
2.616712589E+01  1.678891113E+03
2.617730502E+01  1.676945312E+03
2.618748415E+01  1.674923706E+03
2.619766328E+01  1.672713257E+03
2.620784241E+01  1.670395508E+03
2.621802154E+01  1.670721069E+03
2.622820067E+01  1.672002197E+03
2.623837980E+01  1.672461182E+03
2.624855894E+01  1.673219360E+03
2.625873807E+01  1.673185547E+03
2.626891720E+01  1.672820923E+03
2.627909633E+01  1.671626099E+03
2.628927546E+01  1.669443726E+03
2.629945459E+01  1.670016968E+03
2.630963372E+01  1.670084229E+03
2.631981285E+01  1.670418945E+03
2.632999198E+01  1.671396973E+03
2.634017111E+01  1.669778198E+03
2.635035024E+01  1.668205566E+03
2.636052937E+01  1.668461182E+03
2.637070850E+01  1.667358154E+03
2.638088763E+01  1.665422119E+03
2.639106676E+01  1.664363525E+03
2.640124589E+01  1.664233887E+03
2.641142503E+01  1.663620728E+03
2.642160416E+01  1.662360352E+03
2.643178329E+01  1.661325684E+03
2.644196242E+01  1.661883911E+03
2.645214155E+01  1.663111450E+03
2.646232068E+01  1.662384521E+03
2.647249981E+01  1.660712280E+03
2.648267894E+01  1.660595825E+03
2.649285807E+01  1.661142212E+03
2.650303720E+01  1.661168701E+03
2.651321633E+01  1.659223267E+03
2.652339546E+01  1.658191162E+03
2.653357459E+01  1.659392334E+03
2.654375372E+01  1.658358765E+03
2.655393285E+01  1.655425049E+03
2.656411198E+01  1.655323975E+03
2.657429112E+01  1.655854492E+03
2.658447025E+01  1.655755737E+03
2.659464938E+01  1.654828613E+03
2.660482851E+01  1.653733398E+03
2.661500764E+01  1.653580078E+03
2.662518677E+01  1.652770508E+03
2.663536590E+01  1.651663330E+03
2.664554503E+01  1.651629761E+03
2.665572416E+01  1.652214600E+03
2.666590329E+01  1.651764160E+03
2.667608242E+01  1.650899414E+03
2.668626155E+01  1.649260620E+03
2.669644068E+01  1.648362305E+03
2.670661981E+01  1.648287476E+03
2.671679894E+01  1.646810669E+03
2.672697807E+01  1.646214966E+03
2.673715721E+01  1.645430176E+03
2.674733634E+01  1.643652954E+03
2.675751547E+01  1.643987793E+03
2.676769460E+01  1.644424561E+03
2.677787373E+01  1.644533569E+03
2.678805286E+01  1.645031738E+03
2.679823199E+01  1.644713379E+03
2.680841112E+01  1.643087891E+03
2.681859025E+01  1.641866821E+03
2.682876938E+01  1.641753052E+03
2.683894851E+01  1.640970703E+03
2.684912764E+01  1.638904175E+03
2.685930677E+01  1.637717407E+03
2.686948590E+01  1.638489990E+03
2.687966503E+01  1.639518555E+03
2.688984416E+01  1.638660767E+03
2.690002330E+01  1.637901489E+03
2.691020243E+01  1.638097900E+03
2.692038156E+01  1.637848877E+03
2.693056069E+01  1.639254272E+03
2.694073982E+01  1.638250366E+03
2.695091895E+01  1.635519897E+03
2.696109808E+01  1.634051025E+03
2.697127721E+01  1.632786987E+03
2.698145634E+01  1.632558105E+03
2.699163547E+01  1.632479248E+03
2.700181460E+01  1.631026855E+03
2.701199373E+01  1.628992920E+03
2.702217286E+01  1.628206543E+03
2.703235199E+01  1.628524292E+03
2.704253112E+01  1.629110352E+03
2.705271025E+01  1.628332520E+03
2.706288939E+01  1.626972656E+03
2.707306852E+01  1.626961426E+03
2.708324765E+01  1.626793701E+03
2.709342678E+01  1.625214233E+03
2.710360591E+01  1.625308228E+03
2.711378504E+01  1.625119873E+03
2.712396417E+01  1.625346436E+03
2.713414330E+01  1.625726807E+03
2.714432243E+01  1.625065430E+03
2.715450156E+01  1.624317627E+03
2.716468069E+01  1.624049683E+03
2.717485982E+01  1.623418091E+03
2.718503895E+01  1.623552246E+03
2.719521808E+01  1.622989502E+03
2.720539721E+01  1.622224121E+03
2.721557634E+01  1.623631348E+03
2.722575547E+01  1.624331055E+03
2.723593461E+01  1.623088013E+03
2.724611374E+01  1.621028442E+03
2.725629287E+01  1.620129028E+03
2.726647200E+01  1.619411133E+03
2.727665113E+01  1.618324219E+03
2.728683026E+01  1.616275879E+03
2.729700939E+01  1.614101318E+03
2.730718852E+01  1.613482422E+03
2.731736765E+01  1.613566528E+03
2.732754678E+01  1.614234009E+03
2.733772591E+01  1.614532349E+03
2.734790504E+01  1.613109131E+03
2.735808417E+01  1.611840454E+03
2.736826330E+01  1.609252441E+03
2.737844243E+01  1.607349487E+03
2.738862156E+01  1.606535400E+03
2.739880070E+01  1.606900757E+03
2.740897983E+01  1.608872681E+03
2.741915896E+01  1.609471436E+03
2.742933809E+01  1.607439575E+03
2.743951722E+01  1.605519775E+03
2.744969635E+01  1.605822388E+03
2.745987548E+01  1.606150024E+03
2.747005461E+01  1.605874756E+03
2.748023374E+01  1.605218140E+03
2.749041287E+01  1.604826782E+03
2.750059200E+01  1.604187256E+03
2.751077113E+01  1.604271851E+03
2.752095026E+01  1.604774170E+03
2.753112939E+01  1.604080933E+03
2.754130852E+01  1.601827637E+03
2.755148765E+01  1.600887695E+03
2.756166679E+01  1.601719604E+03
2.757184592E+01  1.600364014E+03
2.758202505E+01  1.598134644E+03
2.759220418E+01  1.598378906E+03
2.760238331E+01  1.598920654E+03
2.761256244E+01  1.598597534E+03
2.762274157E+01  1.598523071E+03
2.763292070E+01  1.597504517E+03
2.764309983E+01  1.595862671E+03
2.765327896E+01  1.594809448E+03
2.766345809E+01  1.594940308E+03
2.767363722E+01  1.596704590E+03
2.768381635E+01  1.596678223E+03
2.769399548E+01  1.594588867E+03
2.770417461E+01  1.594138794E+03
2.771435374E+01  1.593489380E+03
2.772453288E+01  1.593053101E+03
2.773471201E+01  1.593565674E+03
2.774489114E+01  1.592053467E+03
2.775507027E+01  1.590488403E+03
2.776524940E+01  1.590496948E+03
2.777542853E+01  1.592213867E+03
2.778560766E+01  1.594124146E+03
2.779578679E+01  1.593751953E+03
2.780596592E+01  1.593415771E+03
2.781614505E+01  1.594789062E+03
2.782632418E+01  1.594811523E+03
2.783650331E+01  1.593036255E+03
2.784668244E+01  1.592227783E+03
2.785686157E+01  1.591384644E+03
2.786704070E+01  1.590825684E+03
2.787721983E+01  1.591672363E+03
2.788739897E+01  1.591976440E+03
2.789757810E+01  1.590205200E+03
2.790775723E+01  1.590377686E+03
2.791793636E+01  1.592433228E+03
2.792811549E+01  1.592921631E+03
2.793829462E+01  1.592283447E+03
2.794847375E+01  1.591264648E+03
2.795865288E+01  1.592829590E+03
2.796883201E+01  1.593859985E+03
2.797901114E+01  1.592491211E+03
2.798919027E+01  1.591012817E+03
2.799936940E+01  1.589945068E+03
2.800954853E+01  1.590334106E+03
2.801972766E+01  1.591106079E+03
2.802990679E+01  1.590817383E+03
2.804008592E+01  1.591004272E+03
2.805026506E+01  1.591252197E+03
2.806044419E+01  1.592502075E+03
2.807062332E+01  1.593127075E+03
2.808080245E+01  1.593870972E+03
2.809098158E+01  1.593837036E+03
2.810116071E+01  1.592854736E+03
2.811133984E+01  1.593145142E+03
2.812151897E+01  1.594307251E+03
2.813169810E+01  1.594418335E+03
2.814187723E+01  1.593262207E+03
2.815205636E+01  1.593348633E+03
2.816223549E+01  1.592513672E+03
2.817241462E+01  1.591369751E+03
2.818259375E+01  1.591283691E+03
2.819277288E+01  1.591799072E+03
2.820295201E+01  1.590927856E+03
2.821313114E+01  1.589485107E+03
2.822331028E+01  1.587412720E+03
2.823348941E+01  1.586745361E+03
2.824366854E+01  1.586769287E+03
2.825384767E+01  1.587135742E+03
2.826402680E+01  1.587693481E+03
2.827420593E+01  1.585290405E+03
2.828438506E+01  1.581390747E+03
2.829456419E+01  1.579411621E+03
2.830474332E+01  1.577705444E+03
2.831492245E+01  1.576707520E+03
2.832510158E+01  1.576388794E+03
2.833528071E+01  1.575574219E+03
2.834545984E+01  1.575182373E+03
2.835563897E+01  1.574566650E+03
2.836581810E+01  1.573072876E+03
2.837599723E+01  1.573053955E+03
2.838617637E+01  1.572198242E+03
2.839635550E+01  1.570310303E+03
2.840653463E+01  1.569594849E+03
2.841671376E+01  1.568774902E+03
2.842689289E+01  1.567391724E+03
2.843707202E+01  1.565757568E+03
2.844725115E+01  1.564897217E+03
2.845743028E+01  1.563628784E+03
2.846760941E+01  1.562917114E+03
2.847778854E+01  1.560895752E+03
2.848796767E+01  1.559006226E+03
2.849814680E+01  1.558269775E+03
2.850832593E+01  1.558201782E+03
2.851850506E+01  1.558701782E+03
2.852868419E+01  1.557514404E+03
2.853886332E+01  1.556763550E+03
2.854904246E+01  1.556448486E+03
2.855922159E+01  1.553098389E+03
2.856940072E+01  1.549910034E+03
2.857957985E+01  1.548596436E+03
2.858975898E+01  1.547142944E+03
2.859993811E+01  1.546610962E+03
2.861011724E+01  1.546710083E+03
2.862029637E+01  1.546711060E+03
2.863047550E+01  1.547594849E+03
2.864065463E+01  1.548296631E+03
2.865083376E+01  1.547743408E+03
2.866101289E+01  1.546974243E+03
2.867119202E+01  1.546248779E+03
2.868137115E+01  1.544629028E+03
2.869155028E+01  1.544075562E+03
2.870172941E+01  1.543724731E+03
2.871190855E+01  1.542453247E+03
2.872208768E+01  1.540840088E+03
2.873226681E+01  1.539313110E+03
2.874244594E+01  1.538223267E+03
2.875262507E+01  1.537615967E+03
2.876280420E+01  1.537976685E+03
2.877298333E+01  1.538477661E+03
2.878316246E+01  1.537578247E+03
2.879334159E+01  1.537273193E+03
2.880352072E+01  1.537696533E+03
2.881369985E+01  1.537460571E+03
2.882387898E+01  1.536997070E+03
2.883405811E+01  1.535698975E+03
2.884423724E+01  1.533944702E+03
2.885441637E+01  1.533734253E+03
2.886459550E+01  1.531739380E+03
2.887477464E+01  1.527600098E+03
2.888495377E+01  1.525621460E+03
2.889513290E+01  1.523893311E+03
2.890531203E+01  1.522028809E+03
2.891549116E+01  1.519663330E+03
2.892567029E+01  1.517514526E+03
2.893584942E+01  1.515694824E+03
2.894602855E+01  1.512916138E+03
2.895620768E+01  1.510939209E+03
2.896638681E+01  1.509027100E+03
2.897656594E+01  1.505755615E+03
2.898674507E+01  1.500078979E+03
2.899692420E+01  1.495519165E+03
2.900710333E+01  1.491240356E+03
2.901728246E+01  1.487326294E+03
2.902746159E+01  1.483946899E+03
2.903764073E+01  1.479555054E+03
2.904781986E+01  1.475324463E+03
2.905799899E+01  1.471115845E+03
2.906817812E+01  1.466024292E+03
2.907835725E+01  1.461819702E+03
2.908853638E+01  1.458247925E+03
2.909871551E+01  1.453965332E+03
2.910889464E+01  1.450413696E+03
2.911907377E+01  1.446980835E+03
2.912925290E+01  1.442812134E+03
2.913943203E+01  1.437115723E+03
2.914961116E+01  1.431058594E+03
2.915979029E+01  1.426629150E+03
2.916996942E+01  1.422657227E+03
2.918014855E+01  1.417972046E+03
2.919032768E+01  1.412935791E+03
2.920050681E+01  1.408694824E+03
2.921068595E+01  1.404357056E+03
2.922086508E+01  1.398833984E+03
2.923104421E+01  1.393996216E+03
2.924122334E+01  1.388897583E+03
2.925140247E+01  1.382921631E+03
2.926158160E+01  1.376079102E+03
2.927176073E+01  1.370041260E+03
2.928193986E+01  1.364130005E+03
2.929211899E+01  1.358953491E+03
2.930229812E+01  1.353186401E+03
2.931247725E+01  1.346805542E+03
2.932265638E+01  1.342635010E+03
2.933283551E+01  1.339218262E+03
2.934301464E+01  1.334375366E+03
2.935319377E+01  1.328276611E+03
2.936337290E+01  1.321350220E+03
2.937355204E+01  1.314649780E+03
2.938373117E+01  1.309119019E+03
2.939391030E+01  1.304399902E+03
2.940408943E+01  1.298240234E+03
2.941426856E+01  1.293258911E+03
2.942444769E+01  1.289390137E+03
2.943462682E+01  1.282641479E+03
2.944480595E+01  1.275200684E+03
2.945498508E+01  1.269782593E+03
2.946516421E+01  1.266071045E+03
2.947534334E+01  1.262331665E+03
2.948552247E+01  1.256087036E+03
2.949570160E+01  1.248587891E+03
2.950588073E+01  1.242621826E+03
2.951605986E+01  1.237809570E+03
2.952623899E+01  1.231380493E+03
2.953641813E+01  1.225089600E+03
2.954659726E+01  1.220943726E+03
2.955677639E+01  1.215781372E+03
2.956695552E+01  1.211014038E+03
2.957713465E+01  1.207382202E+03
2.958731378E+01  1.202706299E+03
2.959749291E+01  1.197485474E+03
2.960767204E+01  1.192275513E+03
2.961785117E+01  1.186685059E+03
2.962803030E+01  1.180583252E+03
2.963820943E+01  1.175919800E+03
2.964838856E+01  1.171229492E+03
2.965856769E+01  1.165920166E+03
2.966874682E+01  1.161107422E+03
2.967892595E+01  1.156437012E+03
2.968910508E+01  1.152070679E+03
2.969928422E+01  1.148847900E+03
2.970946335E+01  1.144388184E+03
2.971964248E+01  1.138627808E+03
2.972982161E+01  1.133641602E+03
2.974000074E+01  1.129823242E+03
2.975017987E+01  1.125038330E+03
2.976035900E+01  1.121510010E+03
2.977053813E+01  1.118654175E+03
2.978071726E+01  1.114925903E+03
2.979089639E+01  1.111534424E+03
2.980107552E+01  1.108560669E+03
2.981125465E+01  1.104047241E+03
2.982143378E+01  1.100102417E+03
2.983161291E+01  1.096935059E+03
2.984179204E+01  1.091572632E+03
2.985197117E+01  1.087087524E+03
2.986215031E+01  1.083577881E+03
2.987232944E+01  1.079042725E+03
2.988250857E+01  1.075179199E+03
2.989268770E+01  1.073274170E+03
2.990286683E+01  1.072548462E+03
2.991304596E+01  1.070393433E+03
2.992322509E+01  1.066093262E+03
2.993340422E+01  1.062087891E+03
2.994358335E+01  1.059847656E+03
2.995376248E+01  1.057508789E+03
2.996394161E+01  1.053769653E+03
2.997412074E+01  1.049026245E+03
2.998429987E+01  1.045525146E+03
2.999447900E+01  1.041870605E+03
3.000465813E+01  1.038399414E+03
3.001483726E+01  1.036494141E+03
3.002501640E+01  1.033894531E+03
3.003519553E+01  1.030353271E+03
3.004537466E+01  1.027082397E+03
3.005555379E+01  1.025134644E+03
3.006573292E+01  1.023297119E+03
3.007591205E+01  1.021467163E+03
3.008609118E+01  1.020110535E+03
3.009627031E+01  1.019147583E+03
3.010644944E+01  1.019702881E+03
3.011662857E+01  1.019900635E+03
3.012680770E+01  1.019995300E+03
3.013698683E+01  1.019431213E+03
3.014716596E+01  1.018861206E+03
3.015734509E+01  1.018168457E+03
3.016752422E+01  1.017894348E+03
3.017770335E+01  1.017356079E+03
3.018788249E+01  1.016462280E+03
3.019806162E+01  1.015636963E+03
3.020824075E+01  1.015448547E+03
3.021841988E+01  1.014802246E+03
3.022859901E+01  1.014192566E+03
3.023877814E+01  1.013706909E+03
3.024895727E+01  1.012939697E+03
3.025913640E+01  1.011844727E+03
3.026931553E+01  1.010976501E+03
3.027949466E+01  1.010993774E+03
3.028967379E+01  1.011370544E+03
3.029985292E+01  1.010795471E+03
3.031003205E+01  1.011579529E+03
3.032021118E+01  1.012371826E+03
3.033039031E+01  1.012475037E+03
3.034056944E+01  1.012053894E+03
3.035074857E+01  1.011053833E+03
3.036092771E+01  1.009511658E+03
3.037110684E+01  1.007283142E+03
3.038128597E+01  1.005369080E+03
3.039146510E+01  1.004583496E+03
3.040164423E+01  1.005014587E+03
3.041182336E+01  1.006437988E+03
3.042200249E+01  1.006321838E+03
3.043218162E+01  1.004792603E+03
3.044236075E+01  1.004075989E+03
3.045253988E+01  1.003512573E+03
3.046271901E+01  1.002254578E+03
3.047289814E+01  1.001016296E+03
3.048307727E+01  1.000206360E+03
3.049325640E+01  1.000447693E+03
3.050343553E+01  1.000060974E+03
3.051361466E+01  9.974941406E+02
3.052379380E+01  9.954940796E+02
3.053397293E+01  9.949666138E+02
3.054415206E+01  9.941864014E+02
3.055433119E+01  9.930326538E+02
3.056451032E+01  9.930952148E+02
3.057468945E+01  9.936340332E+02
3.058486858E+01  9.935433350E+02
3.059504771E+01  9.935878296E+02
3.060522684E+01  9.930982056E+02
3.061540597E+01  9.921923828E+02
3.062558510E+01  9.915833130E+02
3.063576423E+01  9.906691284E+02
3.064594336E+01  9.899051514E+02
3.065612249E+01  9.883931885E+02
3.066630162E+01  9.871434326E+02
3.067648075E+01  9.861530762E+02
3.068665989E+01  9.845853271E+02
3.069683902E+01  9.841901245E+02
3.070701815E+01  9.849644775E+02
3.071719728E+01  9.853133545E+02
3.072737641E+01  9.859687500E+02
3.073755554E+01  9.850802002E+02
3.074773467E+01  9.826489258E+02
3.075791380E+01  9.816058350E+02
3.076809293E+01  9.817074585E+02
3.077827206E+01  9.807295532E+02
3.078845119E+01  9.799987183E+02
3.079863032E+01  9.796987915E+02
3.080880945E+01  9.790659790E+02
3.081898858E+01  9.790795898E+02
3.082916771E+01  9.777078857E+02
3.083934684E+01  9.761130371E+02
3.084952598E+01  9.788687744E+02
3.085970511E+01  9.903638916E+02
3.086988424E+01  9.978536987E+02
3.088006337E+01  1.000111572E+03
3.089024250E+01  1.002351868E+03
3.090042163E+01  1.004596436E+03
3.091060076E+01  1.006705078E+03
3.092077989E+01  1.009677185E+03
3.093095902E+01  1.011825439E+03
3.094113815E+01  1.012616150E+03
3.095131728E+01  1.012495544E+03
3.096149641E+01  1.010413269E+03
3.097167554E+01  1.008764160E+03
3.098185467E+01  1.010736572E+03
3.099203380E+01  1.013952393E+03
3.100221293E+01  1.015551147E+03
3.101239207E+01  1.016688049E+03
3.102257120E+01  1.017154419E+03
3.103275033E+01  1.016610352E+03
3.104292946E+01  1.015500549E+03
3.105310859E+01  1.013624084E+03
3.106328772E+01  1.014164490E+03
3.107346685E+01  1.015897095E+03
3.108364598E+01  1.015299500E+03
3.109382511E+01  1.013299744E+03
3.110400424E+01  1.012894592E+03
3.111418337E+01  1.014108154E+03
3.112436250E+01  1.014045776E+03
3.113454163E+01  1.013049316E+03
3.114472076E+01  1.013838379E+03
3.115489989E+01  1.015786316E+03
3.116507902E+01  1.015775391E+03
3.117525816E+01  1.014614197E+03
3.118543729E+01  1.016181641E+03
3.119561642E+01  1.018637939E+03
3.120579555E+01  1.017684692E+03
3.121597468E+01  1.014480103E+03
3.122615381E+01  1.012063416E+03
3.123633294E+01  1.012213928E+03
3.124651207E+01  1.012402771E+03
3.125669120E+01  1.011294312E+03
3.126687033E+01  1.011157776E+03
3.127704946E+01  1.012557556E+03
3.128722859E+01  1.013075439E+03
3.129740772E+01  1.012760315E+03
3.130758685E+01  1.011733704E+03
3.131776598E+01  1.011740479E+03
3.132794511E+01  1.012958130E+03
3.133812424E+01  1.013737000E+03
3.134830338E+01  1.013515076E+03
3.135848251E+01  1.011041748E+03
3.136866164E+01  1.009807983E+03
3.137884077E+01  1.009986694E+03
3.138901990E+01  1.008882446E+03
3.139919903E+01  1.006912170E+03
3.140937816E+01  1.007061340E+03
3.141955729E+01  1.008937744E+03
3.142973642E+01  1.008609131E+03
3.143991555E+01  1.007160889E+03
3.145009468E+01  1.005881531E+03
3.146027381E+01  1.005470642E+03
3.147045294E+01  1.005086365E+03
3.148063207E+01  1.005299438E+03
3.149081120E+01  1.004761658E+03
3.150099033E+01  1.003659729E+03
3.151116947E+01  1.004361938E+03
3.152134860E+01  1.006562622E+03
3.153152773E+01  1.005660278E+03
3.154170686E+01  1.002526184E+03
3.155188599E+01  1.001374268E+03
3.156206512E+01  1.001366943E+03
3.157224425E+01  1.001681030E+03
3.158242338E+01  1.001618103E+03
3.159260251E+01  1.001853699E+03
3.160278164E+01  1.001677124E+03
3.161296077E+01  9.995762329E+02
3.162313990E+01  9.980582886E+02
3.163331903E+01  9.974715576E+02
3.164349816E+01  9.953405762E+02
3.165367729E+01  9.942014160E+02
3.166385642E+01  9.946442871E+02
3.167403556E+01  9.941130371E+02
3.168421469E+01  9.947061157E+02
3.169439382E+01  9.960537109E+02
3.170457295E+01  9.956868896E+02
3.171475208E+01  9.955558472E+02
3.172493121E+01  9.957435913E+02
3.173511034E+01  9.958317871E+02
3.174528947E+01  9.938775024E+02
3.175546860E+01  9.916647339E+02
3.176564773E+01  9.907946777E+02
3.177582686E+01  9.888313599E+02
3.178600599E+01  9.863798218E+02
3.179618512E+01  9.860643921E+02
3.180636425E+01  9.868864746E+02
3.181654338E+01  9.880797119E+02
3.182672251E+01  9.905202637E+02
3.183690165E+01  9.900358887E+02
3.184708078E+01  9.859594727E+02
3.185725991E+01  9.836807861E+02
3.186743904E+01  9.836715088E+02
3.187761817E+01  9.830402832E+02
3.188779730E+01  9.831179810E+02
3.189797643E+01  9.840577393E+02
3.190815556E+01  9.829133301E+02
3.191833469E+01  9.799956055E+02
3.192851382E+01  9.770274048E+02
3.193869295E+01  9.751478271E+02
3.194887208E+01  9.748120728E+02
3.195905121E+01  9.733572388E+02
3.196923034E+01  9.711235352E+02
3.197940947E+01  9.719461670E+02
3.198958860E+01  9.734527588E+02
3.199976774E+01  9.725479126E+02
3.200994687E+01  9.701793823E+02
3.202012600E+01  9.695784302E+02
3.203030513E+01  9.686196289E+02
3.204048426E+01  9.664028320E+02
3.205066339E+01  9.647117920E+02
3.206084252E+01  9.638886108E+02
3.207102165E+01  9.632910156E+02
3.208120078E+01  9.636582031E+02
3.209137991E+01  9.630416260E+02
3.210155904E+01  9.609368286E+02
3.211173817E+01  9.588551025E+02
3.212191730E+01  9.579434204E+02
3.213209643E+01  9.572565308E+02
3.214227556E+01  9.572763672E+02
3.215245469E+01  9.567189941E+02
3.216263383E+01  9.536683350E+02
3.217281296E+01  9.519183960E+02
3.218299209E+01  9.511768799E+02
3.219317122E+01  9.503383789E+02
3.220335035E+01  9.506536255E+02
3.221352948E+01  9.485875854E+02
3.222370861E+01  9.474582520E+02
3.223388774E+01  9.560927734E+02
3.224406687E+01  9.819027100E+02
3.225424600E+01  1.010269165E+03
3.226442513E+01  1.023820374E+03
3.227460426E+01  1.026513306E+03
3.228478339E+01  1.025325806E+03
3.229496252E+01  1.028184082E+03
3.230514165E+01  1.032293091E+03
3.231532078E+01  1.033874390E+03
3.232549991E+01  1.033281982E+03
3.233567905E+01  1.034832886E+03
3.234585818E+01  1.037585449E+03
3.235603731E+01  1.037351562E+03
3.236621644E+01  1.034305542E+03
3.237639557E+01  1.033314819E+03
3.238657470E+01  1.035530151E+03
3.239675383E+01  1.035866089E+03
3.240693296E+01  1.033466553E+03
3.241711209E+01  1.033632568E+03
3.242729122E+01  1.033879395E+03
3.243747035E+01  1.032634399E+03
3.244764948E+01  1.031777588E+03
3.245782861E+01  1.031471191E+03
3.246800774E+01  1.031087158E+03
3.247818687E+01  1.027912598E+03
3.248836600E+01  1.026848022E+03
3.249854514E+01  1.025864014E+03
3.250872427E+01  1.022483887E+03
3.251890340E+01  1.019771667E+03
3.252908253E+01  1.019608398E+03
3.253926166E+01  1.022578552E+03
3.254944079E+01  1.023431885E+03
3.255961992E+01  1.022607605E+03
3.256979905E+01  1.021802124E+03
3.257997818E+01  1.019448975E+03
3.259015731E+01  1.015871216E+03
3.260033644E+01  1.011279724E+03
3.261051557E+01  1.006925354E+03
3.262069470E+01  1.000967407E+03
3.263087383E+01  9.973229370E+02
3.264105296E+01  9.988366089E+02
3.265123209E+01  9.969137573E+02
3.266141123E+01  9.921719360E+02
3.267159036E+01  9.888717041E+02
3.268176949E+01  9.846548462E+02
3.269194862E+01  9.793596191E+02
3.270212775E+01  9.756134033E+02
3.271230688E+01  9.761475220E+02
3.272248601E+01  9.781119385E+02
3.273266514E+01  9.778804321E+02
3.274284427E+01  9.751669922E+02
3.275302340E+01  9.680221558E+02
3.276320253E+01  9.610216064E+02
3.277338166E+01  9.548849487E+02
3.278356079E+01  9.513851929E+02
3.279373992E+01  9.514875488E+02
3.280391905E+01  9.504356079E+02
3.281409818E+01  9.478245850E+02
3.282427732E+01  9.424303589E+02
3.283445645E+01  9.399439697E+02
3.284463558E+01  9.388546143E+02
3.285481471E+01  9.372150879E+02
3.286499384E+01  9.311209717E+02
3.287517297E+01  9.242274170E+02
3.288535210E+01  9.219647217E+02
3.289553123E+01  9.159997559E+02
3.290571036E+01  9.110166016E+02
3.291588949E+01  9.055892944E+02
3.292606862E+01  8.981349487E+02
3.293624775E+01  8.954478149E+02
3.294642688E+01  8.982247925E+02
3.295660601E+01  8.951156006E+02
3.296678514E+01  8.869313965E+02
3.297696427E+01  8.842786865E+02
3.298714341E+01  8.838572388E+02
3.299732254E+01  8.786420898E+02
3.300750167E+01  8.712947998E+02
3.301768080E+01  8.646519165E+02
3.302785993E+01  8.604276123E+02
3.303803906E+01  8.556437378E+02
3.304821819E+01  8.475355225E+02
3.305839732E+01  8.387658081E+02
3.306857645E+01  8.316279907E+02
3.307875558E+01  8.258033447E+02
3.308893471E+01  8.198672485E+02
3.309911384E+01  8.124879150E+02
3.310929297E+01  8.005498047E+02
3.311947210E+01  7.929376221E+02
3.312965123E+01  7.892547607E+02
3.313983036E+01  7.811353760E+02
3.315000950E+01  7.734425659E+02
3.316018863E+01  7.669196777E+02
3.317036776E+01  7.612199097E+02
3.318054689E+01  7.538990479E+02
3.319072602E+01  7.489382935E+02
3.320090515E+01  7.419931030E+02
3.321108428E+01  7.362528076E+02
3.322126341E+01  7.276044312E+02
3.323144254E+01  7.192022095E+02
3.324162167E+01  7.176463623E+02
3.325180080E+01  7.154926147E+02
3.326197993E+01  7.076405029E+02
3.327215906E+01  7.019708862E+02
3.328233819E+01  7.045018311E+02
3.329251732E+01  7.100798340E+02
3.330269645E+01  7.153187256E+02
3.331287558E+01  7.107705078E+02
3.332305472E+01  7.042221069E+02
3.333323385E+01  7.030215454E+02
3.334341298E+01  7.028547974E+02
3.335359211E+01  7.020257568E+02
3.336377124E+01  7.051208496E+02
3.337395037E+01  7.067835083E+02
3.338412950E+01  7.046498413E+02
3.339430863E+01  7.020328369E+02
3.340448776E+01  6.984632568E+02
3.341466689E+01  6.948235474E+02
3.342484602E+01  6.875475464E+02
3.343502515E+01  6.816661377E+02
3.344520428E+01  6.811659546E+02
3.345538341E+01  6.868728638E+02
3.346556254E+01  6.944033813E+02
3.347574167E+01  6.862845459E+02
3.348592081E+01  6.696163940E+02
3.349609994E+01  6.624113159E+02
3.350627907E+01  6.679741211E+02
3.351645820E+01  6.731842041E+02
3.352663733E+01  6.697842407E+02
3.353681646E+01  6.708879395E+02
3.354699559E+01  6.727857056E+02
3.355717472E+01  6.684551392E+02
3.356735385E+01  6.593279419E+02
3.357753298E+01  6.465086670E+02
3.358771211E+01  6.428065796E+02
3.359789124E+01  6.367041626E+02
3.360807037E+01  6.260125732E+02
3.361824950E+01  6.205007324E+02
3.362842863E+01  6.127966919E+02
