# == pyFAI calibration ==
# SplineFile: None
# PixelSize: 7.900e-05, 7.900e-05 m
# PONI: 1.411e-01, 1.028e-01 m
# Distance Sample to Detector: 0.252389920345 m
# Rotations: 0.001947 0.002954 0.000003 rad
# 
# == Fit2d calibration ==
# Distance Sample-beamCenter: 252.392 mm
# Center: x=1295.273, y=1795.185 pix
# Tilt: 0.203 deg  TiltPlanRot: 123.397 deg
# 
# Wavelength: 8.603e-11
# Polarization factor: 0.99
# Normalization factor: None
#
# 2th_deg	 I
3.335335913E+00  6.311487793E+03
3.345515043E+00  6.354864746E+03
3.355694174E+00  6.394434082E+03
3.365873304E+00  6.471580078E+03
3.376052435E+00  6.492263184E+03
3.386231566E+00  6.504775391E+03
3.396410696E+00  6.506844238E+03
3.406589827E+00  6.497639160E+03
3.416768958E+00  6.476605469E+03
3.426948088E+00  6.490139160E+03
3.437127219E+00  6.504376465E+03
3.447306349E+00  6.520687500E+03
3.457485480E+00  6.515883301E+03
3.467664611E+00  6.525628418E+03
3.477843741E+00  6.555048340E+03
3.488022872E+00  6.592187500E+03
3.498202002E+00  6.592194336E+03
3.508381133E+00  6.600800781E+03
3.518560264E+00  6.611735352E+03
3.528739394E+00  6.620003418E+03
3.538918525E+00  6.639783691E+03
3.549097656E+00  6.677479980E+03
3.559276786E+00  6.689711426E+03
3.569455917E+00  6.693893555E+03
3.579635047E+00  6.707173828E+03
3.589814178E+00  6.696314453E+03
3.599993309E+00  6.703371582E+03
3.610172439E+00  6.757684570E+03
3.620351570E+00  6.797717285E+03
3.630530701E+00  6.821890137E+03
3.640709831E+00  6.825187988E+03
3.650888962E+00  6.816372559E+03
3.661068092E+00  6.794193848E+03
3.671247223E+00  6.781770020E+03
3.681426354E+00  6.768880371E+03
3.691605484E+00  6.776080078E+03
3.701784615E+00  6.796341309E+03
3.711963745E+00  6.817505859E+03
3.722142876E+00  6.849502930E+03
3.732322007E+00  6.865770020E+03
3.742501137E+00  6.880467773E+03
3.752680268E+00  6.885927246E+03
3.762859399E+00  6.879553223E+03
3.773038529E+00  6.874063965E+03
3.783217660E+00  6.866743164E+03
3.793396790E+00  6.854243652E+03
3.803575921E+00  6.843433594E+03
3.813755052E+00  6.853957520E+03
3.823934182E+00  6.881079102E+03
3.834113313E+00  6.898863770E+03
3.844292444E+00  6.905759277E+03
3.854471574E+00  6.899554199E+03
3.864650705E+00  6.894284668E+03
3.874829835E+00  6.875841797E+03
3.885008966E+00  6.873861816E+03
3.895188097E+00  6.896538086E+03
3.905367227E+00  6.898905273E+03
3.915546358E+00  6.898368164E+03
3.925725488E+00  6.898822266E+03
3.935904619E+00  6.902672363E+03
3.946083750E+00  6.907036133E+03
3.956262880E+00  6.900252441E+03
3.966442011E+00  6.901689941E+03
3.976621142E+00  6.913972656E+03
3.986800272E+00  6.936173828E+03
3.996979403E+00  6.937285645E+03
4.007158533E+00  6.923392578E+03
4.017337664E+00  6.914501465E+03
4.027516795E+00  6.917371094E+03
4.037695925E+00  6.926888184E+03
4.047875056E+00  6.923084473E+03
4.058054187E+00  6.921716309E+03
4.068233317E+00  6.932033691E+03
4.078412448E+00  6.942588379E+03
4.088591578E+00  6.957563477E+03
4.098770709E+00  6.959300781E+03
4.108949840E+00  6.948719238E+03
4.119128970E+00  6.924872070E+03
4.129308101E+00  6.913006836E+03
4.139487231E+00  6.908618652E+03
4.149666362E+00  6.909810547E+03
4.159845493E+00  6.914874023E+03
4.170024623E+00  6.924984863E+03
4.180203754E+00  6.935156250E+03
4.190382885E+00  6.938225586E+03
4.200562015E+00  6.942261719E+03
4.210741146E+00  6.933460449E+03
4.220920276E+00  6.931671875E+03
4.231099407E+00  6.936419434E+03
4.241278538E+00  6.942750488E+03
4.251457668E+00  6.940692383E+03
4.261636799E+00  6.935403809E+03
4.271815930E+00  6.934596191E+03
4.281995060E+00  6.932394043E+03
4.292174191E+00  6.940936523E+03
4.302353321E+00  6.939516602E+03
4.312532452E+00  6.939014648E+03
4.322711583E+00  6.936849609E+03
4.332890713E+00  6.946833496E+03
4.343069844E+00  6.944841797E+03
4.353248974E+00  6.924146484E+03
4.363428105E+00  6.906735352E+03
4.373607236E+00  6.894260742E+03
4.383786366E+00  6.892204102E+03
4.393965497E+00  6.907820312E+03
4.404144628E+00  6.921129395E+03
4.414323758E+00  6.921321777E+03
4.424502889E+00  6.906928711E+03
4.434682019E+00  6.899150879E+03
4.444861150E+00  6.891204590E+03
4.455040281E+00  6.892557129E+03
4.465219411E+00  6.883493164E+03
4.475398542E+00  6.884427246E+03
4.485577673E+00  6.893453125E+03
4.495756803E+00  6.906310547E+03
4.505935934E+00  6.912680176E+03
4.516115064E+00  6.920826660E+03
4.526294195E+00  6.930855957E+03
4.536473326E+00  6.934749512E+03
4.546652456E+00  6.929227051E+03
4.556831587E+00  6.911967285E+03
4.567010717E+00  6.903230469E+03
4.577189848E+00  6.901538574E+03
4.587368979E+00  6.898702148E+03
4.597548109E+00  6.892581543E+03
4.607727240E+00  6.897435547E+03
4.617906371E+00  6.907631348E+03
4.628085501E+00  6.916099609E+03
4.638264632E+00  6.917934082E+03
4.648443762E+00  6.916423340E+03
4.658622893E+00  6.906656738E+03
4.668802024E+00  6.901009766E+03
4.678981154E+00  6.896109375E+03
4.689160285E+00  6.894790039E+03
4.699339415E+00  6.893716309E+03
4.709518546E+00  6.896135254E+03
4.719697677E+00  6.888003418E+03
4.729876807E+00  6.879638184E+03
4.740055938E+00  6.879074219E+03
4.750235069E+00  6.881030273E+03
4.760414199E+00  6.885471680E+03
4.770593330E+00  6.888922852E+03
4.780772460E+00  6.895376465E+03
4.790951591E+00  6.895679688E+03
4.801130722E+00  6.893389648E+03
4.811309852E+00  6.889232422E+03
4.821488983E+00  6.881951172E+03
4.831668114E+00  6.883633789E+03
4.841847244E+00  6.889744629E+03
4.852026375E+00  6.888889160E+03
4.862205505E+00  6.888206055E+03
4.872384636E+00  6.890511719E+03
4.882563767E+00  6.887334961E+03
4.892742897E+00  6.872895020E+03
4.902922028E+00  6.857622070E+03
4.913101158E+00  6.852857910E+03
4.923280289E+00  6.857785156E+03
4.933459420E+00  6.862459961E+03
4.943638550E+00  6.862728027E+03
4.953817681E+00  6.859229980E+03
4.963996812E+00  6.865364258E+03
4.974175942E+00  6.870540039E+03
4.984355073E+00  6.871091797E+03
4.994534203E+00  6.868237305E+03
5.004713334E+00  6.870203613E+03
5.014892465E+00  6.871414062E+03
5.025071595E+00  6.869681641E+03
5.035250726E+00  6.871983887E+03
5.045429857E+00  6.868162598E+03
5.055608987E+00  6.858243652E+03
5.065788118E+00  6.845138184E+03
5.075967248E+00  6.843790039E+03
5.086146379E+00  6.847181152E+03
5.096325510E+00  6.855230469E+03
5.106504640E+00  6.862739746E+03
5.116683771E+00  6.864108398E+03
5.126862901E+00  6.860549805E+03
5.137042032E+00  6.860044434E+03
5.147221163E+00  6.868894531E+03
5.157400293E+00  6.874676270E+03
5.167579424E+00  6.868116699E+03
5.177758555E+00  6.856612793E+03
5.187937685E+00  6.851313965E+03
5.198116816E+00  6.844965820E+03
5.208295946E+00  6.835060059E+03
5.218475077E+00  6.817890625E+03
5.228654208E+00  6.802787109E+03
5.238833338E+00  6.800395996E+03
5.249012469E+00  6.810729004E+03
5.259191600E+00  6.812732422E+03
5.269370730E+00  6.814874512E+03
5.279549861E+00  6.811235352E+03
5.289728991E+00  6.814278809E+03
5.299908122E+00  6.824026855E+03
5.310087253E+00  6.836585449E+03
5.320266383E+00  6.834142578E+03
5.330445514E+00  6.826457031E+03
5.340624644E+00  6.818599121E+03
5.350803775E+00  6.812041016E+03
5.360982906E+00  6.804666016E+03
5.371162036E+00  6.799931641E+03
5.381341167E+00  6.786368164E+03
5.391520298E+00  6.778187500E+03
5.401699428E+00  6.767785645E+03
5.411878559E+00  6.759009277E+03
5.422057689E+00  6.755532715E+03
5.432236820E+00  6.748513672E+03
5.442415951E+00  6.739164062E+03
5.452595081E+00  6.726184570E+03
5.462774212E+00  6.727001465E+03
5.472953343E+00  6.733096680E+03
5.483132473E+00  6.735526367E+03
5.493311604E+00  6.730061035E+03
5.503490734E+00  6.725938477E+03
5.513669865E+00  6.724118164E+03
5.523848996E+00  6.718913086E+03
5.534028126E+00  6.706621582E+03
5.544207257E+00  6.698264648E+03
5.554386387E+00  6.692169922E+03
5.564565518E+00  6.690703613E+03
5.574744649E+00  6.691040039E+03
5.584923779E+00  6.688526367E+03
5.595102910E+00  6.680030273E+03
5.605282041E+00  6.667438477E+03
5.615461171E+00  6.654911621E+03
5.625640302E+00  6.643064453E+03
5.635819432E+00  6.636242676E+03
5.645998563E+00  6.639445312E+03
5.656177694E+00  6.639592773E+03
5.666356824E+00  6.634497070E+03
5.676535955E+00  6.634840332E+03
5.686715086E+00  6.634854980E+03
5.696894216E+00  6.634561035E+03
5.707073347E+00  6.636582520E+03
5.717252477E+00  6.637627441E+03
5.727431608E+00  6.628798340E+03
5.737610739E+00  6.614908203E+03
5.747789869E+00  6.600635254E+03
5.757969000E+00  6.592414062E+03
5.768148130E+00  6.594258789E+03
5.778327261E+00  6.598025879E+03
5.788506392E+00  6.590202637E+03
5.798685522E+00  6.574895996E+03
5.808864653E+00  6.563923828E+03
5.819043784E+00  6.562647949E+03
5.829222914E+00  6.565555176E+03
5.839402045E+00  6.565538574E+03
5.849581175E+00  6.559476562E+03
5.859760306E+00  6.557078125E+03
5.869939437E+00  6.552356934E+03
5.880118567E+00  6.547582031E+03
5.890297698E+00  6.538130859E+03
5.900476829E+00  6.535573242E+03
5.910655959E+00  6.531256348E+03
5.920835090E+00  6.524637695E+03
5.931014220E+00  6.519377930E+03
5.941193351E+00  6.513175293E+03
5.951372482E+00  6.505446777E+03
5.961551612E+00  6.493642578E+03
5.971730743E+00  6.487202148E+03
5.981909873E+00  6.488083008E+03
5.992089004E+00  6.491078125E+03
6.002268135E+00  6.486697266E+03
6.012447265E+00  6.480365723E+03
6.022626396E+00  6.475862305E+03
6.032805527E+00  6.473378418E+03
6.042984657E+00  6.468404297E+03
6.053163788E+00  6.459473633E+03
6.063342918E+00  6.455284668E+03
6.073522049E+00  6.445961426E+03
6.083701180E+00  6.442415527E+03
6.093880310E+00  6.440204590E+03
6.104059441E+00  6.432138184E+03
6.114238572E+00  6.426714844E+03
6.124417702E+00  6.424579590E+03
6.134596833E+00  6.419525391E+03
6.144775963E+00  6.411812012E+03
6.154955094E+00  6.407500977E+03
6.165134225E+00  6.406612793E+03
6.175313355E+00  6.403306641E+03
6.185492486E+00  6.396461914E+03
6.195671616E+00  6.389763672E+03
6.205850747E+00  6.384062500E+03
6.216029878E+00  6.379564453E+03
6.226209008E+00  6.376448730E+03
6.236388139E+00  6.369843262E+03
6.246567270E+00  6.363757812E+03
6.256746400E+00  6.359756836E+03
6.266925531E+00  6.355600586E+03
6.277104661E+00  6.354619629E+03
6.287283792E+00  6.350644531E+03
6.297462923E+00  6.345178223E+03
6.307642053E+00  6.343287598E+03
6.317821184E+00  6.340308105E+03
6.328000315E+00  6.335015137E+03
6.338179445E+00  6.325902832E+03
6.348358576E+00  6.317031250E+03
6.358537706E+00  6.314320801E+03
6.368716837E+00  6.312534180E+03
6.378895968E+00  6.307752930E+03
6.389075098E+00  6.296225098E+03
6.399254229E+00  6.283841797E+03
6.409433359E+00  6.275416504E+03
6.419612490E+00  6.272893066E+03
6.429791621E+00  6.269707520E+03
6.439970751E+00  6.271279297E+03
6.450149882E+00  6.270307617E+03
6.460329013E+00  6.262331055E+03
6.470508143E+00  6.255944336E+03
6.480687274E+00  6.252241699E+03
6.490866404E+00  6.249448730E+03
6.501045535E+00  6.242712402E+03
6.511224666E+00  6.238973633E+03
6.521403796E+00  6.240365234E+03
6.531582927E+00  6.238570312E+03
6.541762058E+00  6.234471680E+03
6.551941188E+00  6.229145020E+03
6.562120319E+00  6.219666016E+03
6.572299449E+00  6.212911621E+03
6.582478580E+00  6.209317383E+03
6.592657711E+00  6.203599609E+03
6.602836841E+00  6.196175293E+03
6.613015972E+00  6.192500488E+03
6.623195102E+00  6.191291504E+03
6.633374233E+00  6.185177734E+03
6.643553364E+00  6.179725098E+03
6.653732494E+00  6.172997559E+03
6.663911625E+00  6.167324219E+03
6.674090756E+00  6.167495117E+03
6.684269886E+00  6.161126953E+03
6.694449017E+00  6.152944824E+03
6.704628147E+00  6.146011719E+03
6.714807278E+00  6.145428223E+03
6.724986409E+00  6.144232422E+03
6.735165539E+00  6.136789062E+03
6.745344670E+00  6.130890625E+03
6.755523800E+00  6.120583496E+03
6.765702931E+00  6.112531738E+03
6.775882062E+00  6.109204102E+03
6.786061192E+00  6.110259766E+03
6.796240323E+00  6.105155762E+03
6.806419454E+00  6.097940918E+03
6.816598584E+00  6.091018555E+03
6.826777715E+00  6.083410156E+03
6.836956845E+00  6.077228027E+03
6.847135976E+00  6.071978516E+03
6.857315107E+00  6.070024902E+03
6.867494237E+00  6.069723145E+03
6.877673368E+00  6.061695801E+03
6.887852499E+00  6.049388184E+03
6.898031629E+00  6.038344727E+03
6.908210760E+00  6.029047363E+03
6.918389890E+00  6.019775391E+03
6.928569021E+00  6.011753906E+03
6.938748152E+00  6.003593262E+03
6.948927282E+00  5.996590820E+03
6.959106413E+00  5.989722168E+03
6.969285543E+00  5.981582031E+03
6.979464674E+00  5.977650391E+03
6.989643805E+00  5.977968750E+03
6.999822935E+00  5.971816406E+03
7.010002066E+00  5.962078613E+03
7.020181197E+00  5.952059082E+03
7.030360327E+00  5.943131836E+03
7.040539458E+00  5.934206055E+03
7.050718588E+00  5.927968262E+03
7.060897719E+00  5.930769043E+03
7.071076850E+00  5.932517090E+03
7.081255980E+00  5.927852539E+03
7.091435111E+00  5.920940918E+03
7.101614242E+00  5.912318848E+03
7.111793372E+00  5.907187988E+03
7.121972503E+00  5.901973145E+03
7.132151633E+00  5.895325684E+03
7.142330764E+00  5.884271484E+03
7.152509895E+00  5.876133301E+03
7.162689025E+00  5.876484863E+03
7.172868156E+00  5.880876953E+03
7.183047286E+00  5.883840820E+03
7.193226417E+00  5.881947754E+03
7.203405548E+00  5.876895508E+03
7.213584678E+00  5.867394043E+03
7.223763809E+00  5.856200195E+03
7.233942940E+00  5.845539551E+03
7.244122070E+00  5.837690918E+03
7.254301201E+00  5.829473145E+03
7.264480331E+00  5.818034180E+03
7.274659462E+00  5.812213379E+03
7.284838593E+00  5.812573730E+03
7.295017723E+00  5.811602539E+03
7.305196854E+00  5.805436035E+03
7.315375985E+00  5.799373047E+03
7.325555115E+00  5.791494629E+03
7.335734246E+00  5.784019531E+03
7.345913376E+00  5.775869141E+03
7.356092507E+00  5.769057129E+03
7.366271638E+00  5.762920410E+03
7.376450768E+00  5.762620605E+03
7.386629899E+00  5.761875977E+03
7.396809029E+00  5.753761719E+03
7.406988160E+00  5.742354492E+03
7.417167291E+00  5.730983887E+03
7.427346421E+00  5.722980957E+03
7.437525552E+00  5.716681641E+03
7.447704683E+00  5.710194336E+03
7.457883813E+00  5.704102539E+03
7.468062944E+00  5.698096680E+03
7.478242074E+00  5.694873047E+03
7.488421205E+00  5.685860352E+03
7.498600336E+00  5.675250488E+03
7.508779466E+00  5.666920898E+03
7.518958597E+00  5.658199219E+03
7.529137728E+00  5.651502930E+03
7.539316858E+00  5.642501465E+03
7.549495989E+00  5.628998047E+03
7.559675119E+00  5.616422852E+03
7.569854250E+00  5.613181641E+03
7.580033381E+00  5.617251953E+03
7.590212511E+00  5.614048828E+03
7.600391642E+00  5.607237793E+03
7.610570772E+00  5.598262695E+03
7.620749903E+00  5.590516602E+03
7.630929034E+00  5.587596191E+03
7.641108164E+00  5.587756836E+03
7.651287295E+00  5.578698242E+03
7.661466426E+00  5.569780762E+03
7.671645556E+00  5.559161133E+03
7.681824687E+00  5.550175781E+03
7.692003817E+00  5.542252441E+03
7.702182948E+00  5.536311523E+03
7.712362079E+00  5.529163086E+03
7.722541209E+00  5.521303223E+03
7.732720340E+00  5.516208984E+03
7.742899471E+00  5.510157227E+03
7.753078601E+00  5.501289062E+03
7.763257732E+00  5.493345703E+03
7.773436862E+00  5.483398438E+03
7.783615993E+00  5.473157715E+03
7.793795124E+00  5.470928223E+03
7.803974254E+00  5.470104492E+03
7.814153385E+00  5.465745605E+03
7.824332515E+00  5.454705566E+03
7.834511646E+00  5.447021484E+03
7.844690777E+00  5.443174316E+03
7.854869907E+00  5.437961426E+03
7.865049038E+00  5.427642090E+03
7.875228169E+00  5.414025879E+03
7.885407299E+00  5.404147461E+03
7.895586430E+00  5.396990234E+03
7.905765560E+00  5.387659668E+03
7.915944691E+00  5.384789062E+03
7.926123822E+00  5.384496582E+03
7.936302952E+00  5.382990723E+03
7.946482083E+00  5.376293945E+03
7.956661214E+00  5.368808594E+03
7.966840344E+00  5.367186035E+03
7.977019475E+00  5.364390137E+03
7.987198605E+00  5.355880371E+03
7.997377736E+00  5.338943359E+03
8.007556867E+00  5.329149414E+03
8.017735997E+00  5.325024414E+03
8.027915128E+00  5.320516602E+03
8.038094258E+00  5.317029785E+03
8.048273389E+00  5.311045410E+03
8.058452520E+00  5.300300781E+03
8.068631650E+00  5.289173828E+03
8.078810781E+00  5.278769043E+03
8.088989912E+00  5.269495117E+03
8.099169042E+00  5.260798340E+03
8.109348173E+00  5.253318848E+03
8.119527303E+00  5.250407715E+03
8.129706434E+00  5.248670410E+03
8.139885565E+00  5.246687500E+03
8.150064695E+00  5.240667969E+03
8.160243826E+00  5.233141113E+03
8.170422957E+00  5.224767578E+03
8.180602087E+00  5.215651367E+03
8.190781218E+00  5.206222168E+03
8.200960348E+00  5.201898438E+03
8.211139479E+00  5.199633789E+03
8.221318610E+00  5.194698242E+03
8.231497740E+00  5.189402832E+03
8.241676871E+00  5.181196289E+03
8.251856001E+00  5.171933105E+03
8.262035132E+00  5.164719238E+03
8.272214263E+00  5.159136230E+03
8.282393393E+00  5.152163574E+03
8.292572524E+00  5.145428711E+03
8.302751655E+00  5.139165527E+03
8.312930785E+00  5.135703125E+03
8.323109916E+00  5.128616699E+03
8.333289046E+00  5.118045898E+03
8.343468177E+00  5.107934082E+03
8.353647308E+00  5.103961914E+03
8.363826438E+00  5.099123047E+03
8.374005569E+00  5.092086914E+03
8.384184700E+00  5.085633789E+03
8.394363830E+00  5.076111816E+03
8.404542961E+00  5.067462402E+03
8.414722091E+00  5.063059082E+03
8.424901222E+00  5.060973633E+03
8.435080353E+00  5.056566895E+03
8.445259483E+00  5.048596191E+03
8.455438614E+00  5.041358887E+03
8.465617744E+00  5.035580566E+03
8.475796875E+00  5.032964844E+03
8.485976006E+00  5.025586426E+03
8.496155136E+00  5.017764648E+03
8.506334267E+00  5.008471680E+03
8.516513398E+00  5.001524414E+03
8.526692528E+00  4.995600098E+03
8.536871659E+00  4.988508789E+03
8.547050789E+00  4.980452148E+03
8.557229920E+00  4.970122070E+03
8.567409051E+00  4.962979492E+03
8.577588181E+00  4.957991211E+03
8.587767312E+00  4.953952637E+03
8.597946443E+00  4.951713867E+03
8.608125573E+00  4.950340820E+03
8.618304704E+00  4.945398438E+03
8.628483834E+00  4.939516113E+03
8.638662965E+00  4.934001953E+03
8.648842096E+00  4.928416016E+03
8.659021226E+00  4.920065918E+03
8.669200357E+00  4.911996094E+03
8.679379487E+00  4.902898926E+03
8.689558618E+00  4.895045898E+03
8.699737749E+00  4.889995117E+03
8.709916879E+00  4.880363281E+03
8.720096010E+00  4.870260254E+03
8.730275141E+00  4.861526855E+03
8.740454271E+00  4.854228027E+03
8.750633402E+00  4.847132324E+03
8.760812532E+00  4.839985840E+03
8.770991663E+00  4.834515137E+03
8.781170794E+00  4.830430664E+03
8.791349924E+00  4.825337402E+03
8.801529055E+00  4.819622070E+03
8.811708185E+00  4.815293457E+03
8.821887316E+00  4.809551758E+03
8.832066447E+00  4.805715820E+03
8.842245577E+00  4.799713379E+03
8.852424708E+00  4.793518555E+03
8.862603839E+00  4.786536621E+03
8.872782969E+00  4.779699707E+03
8.882962100E+00  4.771572754E+03
8.893141230E+00  4.765253418E+03
8.903320361E+00  4.758666016E+03
8.913499492E+00  4.753265137E+03
8.923678622E+00  4.747694336E+03
8.933857753E+00  4.738907715E+03
8.944036884E+00  4.729000488E+03
8.954216014E+00  4.720602051E+03
8.964395145E+00  4.715741211E+03
8.974574275E+00  4.711542969E+03
8.984753406E+00  4.705912109E+03
8.994932537E+00  4.699846191E+03
9.005111667E+00  4.693360352E+03
9.015290798E+00  4.688896973E+03
9.025469928E+00  4.685535645E+03
9.035649059E+00  4.682478027E+03
9.045828190E+00  4.676533203E+03
9.056007320E+00  4.668529785E+03
9.066186451E+00  4.661225098E+03
9.076365582E+00  4.653090820E+03
9.086544712E+00  4.642718750E+03
9.096723843E+00  4.634794922E+03
9.106902973E+00  4.635278320E+03
9.117082104E+00  4.632760742E+03
9.127261235E+00  4.624704590E+03
9.137440365E+00  4.614534180E+03
9.147619496E+00  4.606243164E+03
9.157798627E+00  4.601309082E+03
9.167977757E+00  4.598656738E+03
9.178156888E+00  4.593811523E+03
9.188336018E+00  4.586458496E+03
9.198515149E+00  4.578311523E+03
9.208694280E+00  4.565762695E+03
9.218873410E+00  4.557987793E+03
9.229052541E+00  4.555368164E+03
9.239231671E+00  4.552133789E+03
9.249410802E+00  4.547568359E+03
9.259589933E+00  4.543612305E+03
9.269769063E+00  4.538842773E+03
9.279948194E+00  4.531199707E+03
9.290127325E+00  4.520999512E+03
9.300306455E+00  4.512522461E+03
9.310485586E+00  4.509270020E+03
9.320664716E+00  4.504690430E+03
9.330843847E+00  4.501201660E+03
9.341022978E+00  4.496667480E+03
9.351202108E+00  4.488388672E+03
9.361381239E+00  4.477392090E+03
9.371560370E+00  4.468577637E+03
9.381739500E+00  4.463398438E+03
9.391918631E+00  4.459567871E+03
9.402097761E+00  4.456629395E+03
9.412276892E+00  4.452631348E+03
9.422456023E+00  4.445159180E+03
9.432635153E+00  4.434231934E+03
9.442814284E+00  4.428152344E+03
9.452993414E+00  4.424567383E+03
9.463172545E+00  4.417837402E+03
9.473351676E+00  4.410160645E+03
9.483530806E+00  4.406978516E+03
9.493709937E+00  4.403169434E+03
9.503889068E+00  4.399477539E+03
9.514068198E+00  4.393263672E+03
9.524247329E+00  4.385927246E+03
9.534426459E+00  4.379836914E+03
9.544605590E+00  4.373856934E+03
9.554784721E+00  4.363608887E+03
9.564963851E+00  4.356009277E+03
9.575142982E+00  4.350506348E+03
9.585322113E+00  4.345249512E+03
9.595501243E+00  4.340250488E+03
9.605680374E+00  4.335696777E+03
9.615859504E+00  4.332919434E+03
9.626038635E+00  4.327085938E+03
9.636217766E+00  4.318877930E+03
9.646396896E+00  4.311111328E+03
9.656576027E+00  4.307005859E+03
9.666755157E+00  4.300707031E+03
9.676934288E+00  4.291918457E+03
9.687113419E+00  4.286991699E+03
9.697292549E+00  4.284935059E+03
9.707471680E+00  4.281266113E+03
9.717650811E+00  4.275335938E+03
9.727829941E+00  4.269934082E+03
9.738009072E+00  4.266440430E+03
9.748188202E+00  4.257979004E+03
9.758367333E+00  4.252073242E+03
9.768546464E+00  4.247395020E+03
9.778725594E+00  4.240967285E+03
9.788904725E+00  4.234525391E+03
9.799083856E+00  4.229491699E+03
9.809262986E+00  4.222316406E+03
9.819442117E+00  4.216415527E+03
9.829621247E+00  4.211333496E+03
9.839800378E+00  4.207794922E+03
9.849979509E+00  4.202525879E+03
9.860158639E+00  4.196093750E+03
9.870337770E+00  4.187937500E+03
9.880516900E+00  4.180087402E+03
9.890696031E+00  4.173344727E+03
9.900875162E+00  4.166709473E+03
9.911054292E+00  4.159662598E+03
9.921233423E+00  4.152457520E+03
9.931412554E+00  4.145687988E+03
9.941591684E+00  4.141541992E+03
9.951770815E+00  4.138119141E+03
9.961949945E+00  4.135239258E+03
9.972129076E+00  4.130103516E+03
9.982308207E+00  4.122955078E+03
9.992487337E+00  4.116027832E+03
1.000266647E+01  4.105899414E+03
1.001284560E+01  4.096236328E+03
1.002302473E+01  4.093250488E+03
1.003320386E+01  4.091260498E+03
1.004338299E+01  4.084306885E+03
1.005356212E+01  4.074945557E+03
1.006374125E+01  4.069758789E+03
1.007392038E+01  4.068652832E+03
1.008409951E+01  4.066552490E+03
1.009427864E+01  4.059041748E+03
1.010445777E+01  4.051920410E+03
1.011463690E+01  4.043478760E+03
1.012481604E+01  4.037821289E+03
1.013499517E+01  4.034212402E+03
1.014517430E+01  4.031947021E+03
1.015535343E+01  4.029039062E+03
1.016553256E+01  4.024035889E+03
1.017571169E+01  4.018106934E+03
1.018589082E+01  4.011109131E+03
1.019606995E+01  4.006411133E+03
1.020624908E+01  3.998932373E+03
1.021642821E+01  3.990868408E+03
1.022660734E+01  3.983327148E+03
1.023678647E+01  3.976262207E+03
1.024696560E+01  3.970341797E+03
1.025714473E+01  3.965213135E+03
1.026732386E+01  3.961542236E+03
1.027750299E+01  3.959139893E+03
1.028768213E+01  3.954082520E+03
1.029786126E+01  3.945886719E+03
1.030804039E+01  3.938873779E+03
1.031821952E+01  3.934201904E+03
1.032839865E+01  3.927850098E+03
1.033857778E+01  3.923822998E+03
1.034875691E+01  3.921371338E+03
1.035893604E+01  3.917781494E+03
1.036911517E+01  3.909061035E+03
1.037929430E+01  3.899330566E+03
1.038947343E+01  3.893799316E+03
1.039965256E+01  3.888250000E+03
1.040983169E+01  3.881198730E+03
1.042001082E+01  3.875112793E+03
1.043018995E+01  3.866909424E+03
1.044036908E+01  3.859001709E+03
1.045054822E+01  3.851948486E+03
1.046072735E+01  3.848085449E+03
1.047090648E+01  3.847677246E+03
1.048108561E+01  3.846428711E+03
1.049126474E+01  3.839757812E+03
1.050144387E+01  3.832159424E+03
1.051162300E+01  3.825666504E+03
1.052180213E+01  3.819761475E+03
1.053198126E+01  3.815523193E+03
1.054216039E+01  3.808974121E+03
1.055233952E+01  3.802326904E+03
1.056251865E+01  3.797616211E+03
1.057269778E+01  3.793229736E+03
1.058287691E+01  3.789357178E+03
1.059305604E+01  3.784304932E+03
1.060323517E+01  3.778010254E+03
1.061341431E+01  3.770175781E+03
1.062359344E+01  3.762819824E+03
1.063377257E+01  3.757128174E+03
1.064395170E+01  3.752928223E+03
1.065413083E+01  3.748192627E+03
1.066430996E+01  3.743040771E+03
1.067448909E+01  3.738560791E+03
1.068466822E+01  3.733975830E+03
1.069484735E+01  3.726185059E+03
1.070502648E+01  3.719670166E+03
1.071520561E+01  3.717068848E+03
1.072538474E+01  3.715295898E+03
1.073556387E+01  3.713645752E+03
1.074574300E+01  3.710064453E+03
1.075592213E+01  3.704118652E+03
1.076610126E+01  3.696952393E+03
1.077628039E+01  3.693141357E+03
1.078645953E+01  3.688122314E+03
1.079663866E+01  3.685724609E+03
1.080681779E+01  3.681075195E+03
1.081699692E+01  3.673391357E+03
1.082717605E+01  3.665407959E+03
1.083735518E+01  3.660539795E+03
1.084753431E+01  3.655447266E+03
1.085771344E+01  3.649485840E+03
1.086789257E+01  3.644144531E+03
1.087807170E+01  3.638637207E+03
1.088825083E+01  3.630848877E+03
1.089842996E+01  3.624950195E+03
1.090860909E+01  3.622078369E+03
1.091878822E+01  3.619359375E+03
1.092896735E+01  3.614332764E+03
1.093914648E+01  3.607554199E+03
1.094932562E+01  3.604609863E+03
1.095950475E+01  3.601414795E+03
1.096968388E+01  3.594790039E+03
1.097986301E+01  3.587040771E+03
1.099004214E+01  3.579551758E+03
1.100022127E+01  3.577245850E+03
1.101040040E+01  3.574069336E+03
1.102057953E+01  3.570266846E+03
1.103075866E+01  3.564251709E+03
1.104093779E+01  3.556673340E+03
1.105111692E+01  3.548646973E+03
1.106129605E+01  3.544217773E+03
1.107147518E+01  3.543537109E+03
1.108165431E+01  3.542178711E+03
1.109183344E+01  3.540261719E+03
1.110201257E+01  3.536970215E+03
1.111219171E+01  3.533782959E+03
1.112237084E+01  3.531260498E+03
1.113254997E+01  3.525510498E+03
1.114272910E+01  3.517518555E+03
1.115290823E+01  3.514157227E+03
1.116308736E+01  3.511597168E+03
1.117326649E+01  3.506854004E+03
1.118344562E+01  3.499662109E+03
1.119362475E+01  3.495137207E+03
1.120380388E+01  3.491131104E+03
1.121398301E+01  3.486673828E+03
1.122416214E+01  3.482542480E+03
1.123434127E+01  3.478002686E+03
1.124452040E+01  3.472674805E+03
1.125469953E+01  3.468817383E+03
1.126487866E+01  3.466457520E+03
1.127505780E+01  3.464931885E+03
1.128523693E+01  3.462031494E+03
1.129541606E+01  3.456230957E+03
1.130559519E+01  3.450305908E+03
1.131577432E+01  3.446605957E+03
1.132595345E+01  3.444328125E+03
1.133613258E+01  3.441615723E+03
1.134631171E+01  3.437188965E+03
1.135649084E+01  3.431520264E+03
1.136666997E+01  3.425804199E+03
1.137684910E+01  3.418601562E+03
1.138702823E+01  3.412666992E+03
1.139720736E+01  3.410486816E+03
1.140738649E+01  3.406544189E+03
1.141756562E+01  3.400096924E+03
1.142774475E+01  3.395052002E+03
1.143792389E+01  3.392312744E+03
1.144810302E+01  3.390098877E+03
1.145828215E+01  3.385725830E+03
1.146846128E+01  3.382769531E+03
1.147864041E+01  3.379914307E+03
1.148881954E+01  3.378606934E+03
1.149899867E+01  3.375526123E+03
1.150917780E+01  3.373449219E+03
1.151935693E+01  3.370048584E+03
1.152953606E+01  3.362955566E+03
1.153971519E+01  3.355146240E+03
1.154989432E+01  3.350649658E+03
1.156007345E+01  3.347304688E+03
1.157025258E+01  3.344591553E+03
1.158043171E+01  3.340515869E+03
1.159061084E+01  3.337313477E+03
1.160078998E+01  3.333568359E+03
1.161096911E+01  3.328919189E+03
1.162114824E+01  3.325335449E+03
1.163132737E+01  3.323427246E+03
1.164150650E+01  3.321710693E+03
1.165168563E+01  3.320104004E+03
1.166186476E+01  3.317249756E+03
1.167204389E+01  3.314067871E+03
1.168222302E+01  3.309955322E+03
1.169240215E+01  3.306188232E+03
1.170258128E+01  3.302602783E+03
1.171276041E+01  3.298814697E+03
1.172293954E+01  3.296702393E+03
1.173311867E+01  3.292786377E+03
1.174329780E+01  3.289020264E+03
1.175347693E+01  3.285070801E+03
1.176365606E+01  3.282207031E+03
1.177383520E+01  3.280968506E+03
1.178401433E+01  3.277237061E+03
1.179419346E+01  3.271057129E+03
1.180437259E+01  3.264192139E+03
1.181455172E+01  3.257981201E+03
1.182473085E+01  3.254338379E+03
1.183490998E+01  3.252398438E+03
1.184508911E+01  3.248645996E+03
1.185526824E+01  3.242371582E+03
1.186544737E+01  3.236747070E+03
1.187562650E+01  3.230452637E+03
1.188580563E+01  3.225193604E+03
1.189598476E+01  3.223845947E+03
1.190616389E+01  3.224742676E+03
1.191634302E+01  3.223713379E+03
1.192652215E+01  3.219748047E+03
1.193670129E+01  3.215316162E+03
1.194688042E+01  3.211999268E+03
1.195705955E+01  3.209348633E+03
1.196723868E+01  3.204607422E+03
1.197741781E+01  3.200487061E+03
1.198759694E+01  3.198907959E+03
1.199777607E+01  3.197497559E+03
1.200795520E+01  3.194494141E+03
1.201813433E+01  3.190335938E+03
1.202831346E+01  3.185013184E+03
1.203849259E+01  3.179624512E+03
1.204867172E+01  3.175466064E+03
1.205885085E+01  3.172096436E+03
1.206902998E+01  3.168371338E+03
1.207920911E+01  3.165004639E+03
1.208938824E+01  3.159651367E+03
1.209956738E+01  3.156890625E+03
1.210974651E+01  3.154446045E+03
1.211992564E+01  3.150812256E+03
1.213010477E+01  3.148180908E+03
1.214028390E+01  3.145008789E+03
1.215046303E+01  3.142028564E+03
1.216064216E+01  3.139796143E+03
1.217082129E+01  3.134006592E+03
1.218100042E+01  3.128751221E+03
1.219117955E+01  3.122435547E+03
1.220135868E+01  3.117682373E+03
1.221153781E+01  3.114613770E+03
1.222171694E+01  3.113296387E+03
1.223189607E+01  3.113407471E+03
1.224207520E+01  3.112751953E+03
1.225225433E+01  3.108696289E+03
1.226243347E+01  3.105497559E+03
1.227261260E+01  3.099660889E+03
1.228279173E+01  3.093496338E+03
1.229297086E+01  3.089392334E+03
1.230314999E+01  3.088771729E+03
1.231332912E+01  3.089139648E+03
1.232350825E+01  3.088144531E+03
1.233368738E+01  3.083732666E+03
1.234386651E+01  3.079282959E+03
1.235404564E+01  3.073123047E+03
1.236422477E+01  3.067395020E+03
1.237440390E+01  3.062714111E+03
1.238458303E+01  3.057850830E+03
1.239476216E+01  3.052549561E+03
1.240494129E+01  3.048221436E+03
1.241512042E+01  3.043999268E+03
1.242529956E+01  3.040038086E+03
1.243547869E+01  3.038932373E+03
1.244565782E+01  3.037179932E+03
1.245583695E+01  3.032978760E+03
1.246601608E+01  3.028697754E+03
1.247619521E+01  3.027315186E+03
1.248637434E+01  3.024835205E+03
1.249655347E+01  3.020691895E+03
1.250673260E+01  3.016776611E+03
1.251691173E+01  3.013210205E+03
1.252709086E+01  3.009241943E+03
1.253726999E+01  3.005571289E+03
1.254744912E+01  3.002906250E+03
1.255762825E+01  2.999677734E+03
1.256780738E+01  2.995964600E+03
1.257798651E+01  2.993685059E+03
1.258816565E+01  2.991415283E+03
1.259834478E+01  2.989966797E+03
1.260852391E+01  2.989737793E+03
1.261870304E+01  2.987137207E+03
1.262888217E+01  2.984016602E+03
1.263906130E+01  2.981183350E+03
1.264924043E+01  2.977853271E+03
1.265941956E+01  2.975480957E+03
1.266959869E+01  2.974179443E+03
1.267977782E+01  2.973128418E+03
1.268995695E+01  2.969316650E+03
1.270013608E+01  2.965196533E+03
1.271031521E+01  2.962588867E+03
1.272049434E+01  2.959058838E+03
1.273067347E+01  2.954239990E+03
1.274085260E+01  2.950621094E+03
1.275103173E+01  2.947227783E+03
1.276121087E+01  2.942182861E+03
1.277139000E+01  2.939026855E+03
1.278156913E+01  2.937212158E+03
1.279174826E+01  2.935528076E+03
1.280192739E+01  2.930812256E+03
1.281210652E+01  2.925219238E+03
1.282228565E+01  2.923043457E+03
1.283246478E+01  2.920595459E+03
1.284264391E+01  2.917752686E+03
1.285282304E+01  2.916198242E+03
1.286300217E+01  2.911692627E+03
1.287318130E+01  2.906620117E+03
1.288336043E+01  2.906705811E+03
1.289353956E+01  2.907483887E+03
1.290371869E+01  2.907151123E+03
1.291389782E+01  2.904081543E+03
1.292407696E+01  2.900519531E+03
1.293425609E+01  2.898414307E+03
1.294443522E+01  2.894538574E+03
1.295461435E+01  2.888601318E+03
1.296479348E+01  2.886034668E+03
1.297497261E+01  2.884478027E+03
1.298515174E+01  2.881908936E+03
1.299533087E+01  2.876475830E+03
1.300551000E+01  2.872407227E+03
1.301568913E+01  2.868715088E+03
1.302586826E+01  2.866958984E+03
1.303604739E+01  2.865804688E+03
1.304622652E+01  2.863077881E+03
1.305640565E+01  2.857228760E+03
1.306658478E+01  2.854913574E+03
1.307676391E+01  2.854462402E+03
1.308694305E+01  2.854147217E+03
1.309712218E+01  2.849277100E+03
1.310730131E+01  2.845242188E+03
1.311748044E+01  2.843852295E+03
1.312765957E+01  2.845706787E+03
1.313783870E+01  2.844882324E+03
1.314801783E+01  2.841297119E+03
1.315819696E+01  2.837732666E+03
1.316837609E+01  2.835159668E+03
1.317855522E+01  2.832707031E+03
1.318873435E+01  2.828237793E+03
1.319891348E+01  2.824938721E+03
1.320909261E+01  2.820584961E+03
1.321927174E+01  2.816356689E+03
1.322945087E+01  2.814407715E+03
1.323963000E+01  2.811479492E+03
1.324980914E+01  2.808240234E+03
1.325998827E+01  2.805746582E+03
1.327016740E+01  2.804207275E+03
1.328034653E+01  2.801162354E+03
1.329052566E+01  2.798862793E+03
1.330070479E+01  2.796678955E+03
1.331088392E+01  2.794443359E+03
1.332106305E+01  2.794309082E+03
1.333124218E+01  2.794227783E+03
1.334142131E+01  2.791211182E+03
1.335160044E+01  2.785223877E+03
1.336177957E+01  2.780788818E+03
1.337195870E+01  2.776833740E+03
1.338213783E+01  2.772572510E+03
1.339231696E+01  2.771106201E+03
1.340249609E+01  2.769625977E+03
1.341267523E+01  2.766882080E+03
1.342285436E+01  2.763456055E+03
1.343303349E+01  2.762309326E+03
1.344321262E+01  2.760527588E+03
1.345339175E+01  2.756028320E+03
1.346357088E+01  2.752073486E+03
1.347375001E+01  2.749329590E+03
1.348392914E+01  2.746085449E+03
1.349410827E+01  2.743627197E+03
1.350428740E+01  2.741113037E+03
1.351446653E+01  2.737815674E+03
1.352464566E+01  2.737507324E+03
1.353482479E+01  2.738168945E+03
1.354500392E+01  2.734758057E+03
1.355518305E+01  2.732020020E+03
1.356536218E+01  2.729935059E+03
1.357554132E+01  2.729530029E+03
1.358572045E+01  2.728312988E+03
1.359589958E+01  2.725802490E+03
1.360607871E+01  2.724126953E+03
1.361625784E+01  2.720279785E+03
1.362643697E+01  2.713513672E+03
1.363661610E+01  2.708971924E+03
1.364679523E+01  2.708125000E+03
1.365697436E+01  2.705792236E+03
1.366715349E+01  2.702476562E+03
1.367733262E+01  2.699748779E+03
1.368751175E+01  2.696524170E+03
1.369769088E+01  2.695574707E+03
1.370787001E+01  2.696822754E+03
1.371804914E+01  2.694702393E+03
1.372822827E+01  2.690056885E+03
1.373840741E+01  2.686021973E+03
1.374858654E+01  2.684019775E+03
1.375876567E+01  2.681729736E+03
1.376894480E+01  2.679355957E+03
1.377912393E+01  2.677028320E+03
1.378930306E+01  2.675988770E+03
1.379948219E+01  2.673917969E+03
1.380966132E+01  2.671296875E+03
1.381984045E+01  2.666550293E+03
1.383001958E+01  2.664080078E+03
1.384019871E+01  2.663292969E+03
1.385037784E+01  2.660552979E+03
1.386055697E+01  2.655777832E+03
1.387073610E+01  2.652020020E+03
1.388091523E+01  2.651196289E+03
1.389109436E+01  2.650862061E+03
1.390127349E+01  2.650401123E+03
1.391145263E+01  2.650277344E+03
1.392163176E+01  2.651397705E+03
1.393181089E+01  2.648716064E+03
1.394199002E+01  2.644196777E+03
1.395216915E+01  2.640942139E+03
1.396234828E+01  2.639008789E+03
1.397252741E+01  2.635970459E+03
1.398270654E+01  2.633497070E+03
1.399288567E+01  2.631025146E+03
1.400306480E+01  2.628504150E+03
1.401324393E+01  2.627722168E+03
1.402342306E+01  2.627454346E+03
1.403360219E+01  2.626012939E+03
1.404378132E+01  2.625928223E+03
1.405396045E+01  2.626218750E+03
1.406413958E+01  2.625200684E+03
1.407431872E+01  2.620369141E+03
1.408449785E+01  2.614180664E+03
1.409467698E+01  2.610501953E+03
1.410485611E+01  2.607772949E+03
1.411503524E+01  2.607029053E+03
1.412521437E+01  2.603672119E+03
1.413539350E+01  2.599716309E+03
1.414557263E+01  2.598195557E+03
1.415575176E+01  2.600457031E+03
1.416593089E+01  2.601687988E+03
1.417611002E+01  2.600954590E+03
1.418628915E+01  2.598098633E+03
1.419646828E+01  2.594854004E+03
1.420664741E+01  2.593429199E+03
1.421682654E+01  2.591062500E+03
1.422700567E+01  2.589953125E+03
1.423718481E+01  2.589336914E+03
1.424736394E+01  2.588822021E+03
1.425754307E+01  2.586186279E+03
1.426772220E+01  2.584105225E+03
1.427790133E+01  2.583177490E+03
1.428808046E+01  2.581821533E+03
1.429825959E+01  2.578442139E+03
1.430843872E+01  2.574356689E+03
1.431861785E+01  2.571282715E+03
1.432879698E+01  2.568505371E+03
1.433897611E+01  2.566798584E+03
1.434915524E+01  2.567238770E+03
1.435933437E+01  2.567865479E+03
1.436951350E+01  2.565207275E+03
1.437969263E+01  2.560281982E+03
1.438987176E+01  2.557844727E+03
1.440005090E+01  2.558662598E+03
1.441023003E+01  2.558721680E+03
1.442040916E+01  2.557571289E+03
1.443058829E+01  2.556152588E+03
1.444076742E+01  2.552042480E+03
1.445094655E+01  2.548652832E+03
1.446112568E+01  2.546540771E+03
1.447130481E+01  2.544124512E+03
1.448148394E+01  2.540731445E+03
1.449166307E+01  2.536324463E+03
1.450184220E+01  2.534740479E+03
1.451202133E+01  2.535033691E+03
1.452220046E+01  2.536179932E+03
1.453237959E+01  2.534123535E+03
1.454255872E+01  2.530123535E+03
1.455273785E+01  2.526841064E+03
1.456291699E+01  2.526729492E+03
1.457309612E+01  2.527601807E+03
1.458327525E+01  2.525458740E+03
1.459345438E+01  2.522567139E+03
1.460363351E+01  2.521271484E+03
1.461381264E+01  2.519226562E+03
1.462399177E+01  2.517424805E+03
1.463417090E+01  2.515046631E+03
1.464435003E+01  2.512334717E+03
1.465452916E+01  2.509633545E+03
1.466470829E+01  2.507766357E+03
1.467488742E+01  2.506879150E+03
1.468506655E+01  2.505381836E+03
1.469524568E+01  2.503708740E+03
1.470542481E+01  2.501176270E+03
1.471560394E+01  2.498227539E+03
1.472578308E+01  2.496572510E+03
1.473596221E+01  2.496871338E+03
1.474614134E+01  2.496540039E+03
1.475632047E+01  2.495511475E+03
1.476649960E+01  2.493438232E+03
1.477667873E+01  2.490483398E+03
1.478685786E+01  2.488633545E+03
1.479703699E+01  2.488715088E+03
1.480721612E+01  2.488562256E+03
1.481739525E+01  2.487552734E+03
1.482757438E+01  2.486025391E+03
1.483775351E+01  2.482539795E+03
1.484793264E+01  2.480742432E+03
1.485811177E+01  2.481231445E+03
1.486829090E+01  2.482272705E+03
1.487847003E+01  2.480974609E+03
1.488864916E+01  2.478728271E+03
1.489882830E+01  2.476436768E+03
1.490900743E+01  2.475145020E+03
1.491918656E+01  2.472918701E+03
1.492936569E+01  2.470542236E+03
1.493954482E+01  2.466717773E+03
1.494972395E+01  2.463173828E+03
1.495990308E+01  2.464545898E+03
1.497008221E+01  2.464843750E+03
1.498026134E+01  2.462236572E+03
1.499044047E+01  2.461040527E+03
1.500061960E+01  2.462854004E+03
1.501079873E+01  2.462751709E+03
1.502097786E+01  2.460465820E+03
1.503115699E+01  2.460589111E+03
1.504133612E+01  2.459512695E+03
1.505151525E+01  2.456027344E+03
1.506169439E+01  2.451571289E+03
1.507187352E+01  2.447918701E+03
1.508205265E+01  2.446081055E+03
1.509223178E+01  2.445065186E+03
1.510241091E+01  2.444870850E+03
1.511259004E+01  2.443430908E+03
1.512276917E+01  2.439914062E+03
1.513294830E+01  2.437253906E+03
1.514312743E+01  2.436073242E+03
1.515330656E+01  2.433442871E+03
1.516348569E+01  2.431459717E+03
1.517366482E+01  2.431495850E+03
1.518384395E+01  2.432131836E+03
1.519402308E+01  2.431979004E+03
1.520420221E+01  2.429405029E+03
1.521438134E+01  2.427854492E+03
1.522456048E+01  2.428191650E+03
1.523473961E+01  2.430772217E+03
1.524491874E+01  2.429397705E+03
1.525509787E+01  2.427312500E+03
1.526527700E+01  2.426100586E+03
1.527545613E+01  2.423068848E+03
1.528563526E+01  2.420809082E+03
1.529581439E+01  2.421469971E+03
1.530599352E+01  2.422256348E+03
1.531617265E+01  2.421273438E+03
1.532635178E+01  2.419511475E+03
1.533653091E+01  2.418465332E+03
1.534671004E+01  2.417627686E+03
1.535688917E+01  2.416159912E+03
1.536706830E+01  2.414212402E+03
1.537724743E+01  2.412536865E+03
1.538742657E+01  2.411033447E+03
1.539760570E+01  2.408338135E+03
1.540778483E+01  2.408574951E+03
1.541796396E+01  2.407345947E+03
1.542814309E+01  2.404607178E+03
1.543832222E+01  2.403112305E+03
1.544850135E+01  2.403416504E+03
1.545868048E+01  2.403328125E+03
1.546885961E+01  2.402010254E+03
1.547903874E+01  2.397075439E+03
1.548921787E+01  2.392303711E+03
1.549939700E+01  2.392193115E+03
1.550957613E+01  2.394137939E+03
1.551975526E+01  2.393489014E+03
1.552993439E+01  2.391445068E+03
1.554011352E+01  2.392078369E+03
1.555029266E+01  2.391801514E+03
1.556047179E+01  2.388820068E+03
1.557065092E+01  2.384844238E+03
1.558083005E+01  2.383516113E+03
1.559100918E+01  2.382651855E+03
1.560118831E+01  2.382027832E+03
1.561136744E+01  2.381223389E+03
1.562154657E+01  2.379216797E+03
1.563172570E+01  2.377597168E+03
1.564190483E+01  2.378982666E+03
1.565208396E+01  2.378732666E+03
1.566226309E+01  2.377925781E+03
1.567244222E+01  2.377268311E+03
1.568262135E+01  2.375723145E+03
1.569280048E+01  2.370539062E+03
1.570297961E+01  2.367649170E+03
1.571315875E+01  2.367711182E+03
1.572333788E+01  2.364835449E+03
1.573351701E+01  2.362075439E+03
1.574369614E+01  2.361891602E+03
1.575387527E+01  2.363060059E+03
1.576405440E+01  2.362905762E+03
1.577423353E+01  2.361240723E+03
1.578441266E+01  2.359628662E+03
1.579459179E+01  2.357762695E+03
1.580477092E+01  2.357495361E+03
1.581495005E+01  2.356639404E+03
1.582512918E+01  2.354969238E+03
1.583530831E+01  2.354972412E+03
1.584548744E+01  2.356513916E+03
1.585566657E+01  2.353492432E+03
1.586584570E+01  2.349809082E+03
1.587602483E+01  2.345637695E+03
1.588620397E+01  2.345679199E+03
1.589638310E+01  2.347938721E+03
1.590656223E+01  2.349150146E+03
1.591674136E+01  2.346700928E+03
1.592692049E+01  2.340915039E+03
1.593709962E+01  2.337897705E+03
1.594727875E+01  2.336937500E+03
1.595745788E+01  2.336267578E+03
1.596763701E+01  2.336345459E+03
1.597781614E+01  2.336551270E+03
1.598799527E+01  2.335291504E+03
1.599817440E+01  2.332508057E+03
1.600835353E+01  2.330282715E+03
1.601853266E+01  2.329952881E+03
1.602871179E+01  2.327931885E+03
1.603889092E+01  2.326830078E+03
1.604907006E+01  2.327175049E+03
1.605924919E+01  2.327658691E+03
1.606942832E+01  2.328795166E+03
1.607960745E+01  2.329259521E+03
1.608978658E+01  2.328899902E+03
1.609996571E+01  2.325945801E+03
1.611014484E+01  2.321766357E+03
1.612032397E+01  2.316800537E+03
1.613050310E+01  2.314374756E+03
1.614068223E+01  2.314140381E+03
1.615086136E+01  2.315238770E+03
1.616104049E+01  2.314687988E+03
1.617121962E+01  2.315248291E+03
1.618139875E+01  2.315050781E+03
1.619157788E+01  2.313958984E+03
1.620175701E+01  2.313171631E+03
1.621193615E+01  2.312949707E+03
1.622211528E+01  2.311729980E+03
1.623229441E+01  2.310458740E+03
1.624247354E+01  2.309504883E+03
1.625265267E+01  2.307535645E+03
1.626283180E+01  2.303720703E+03
1.627301093E+01  2.299410645E+03
1.628319006E+01  2.299717529E+03
1.629336919E+01  2.299809570E+03
1.630354832E+01  2.298988525E+03
1.631372745E+01  2.297498779E+03
1.632390658E+01  2.295396484E+03
1.633408571E+01  2.293491455E+03
1.634426484E+01  2.294112549E+03
1.635444397E+01  2.293460938E+03
1.636462310E+01  2.291485352E+03
1.637480224E+01  2.290495605E+03
1.638498137E+01  2.289981934E+03
1.639516050E+01  2.289533203E+03
1.640533963E+01  2.288424316E+03
1.641551876E+01  2.286540771E+03
1.642569789E+01  2.283760498E+03
1.643587702E+01  2.284080322E+03
1.644605615E+01  2.284898438E+03
1.645623528E+01  2.282825439E+03
1.646641441E+01  2.280277832E+03
1.647659354E+01  2.280133057E+03
1.648677267E+01  2.279937256E+03
1.649695180E+01  2.278156250E+03
1.650713093E+01  2.276722412E+03
1.651731006E+01  2.277234375E+03
1.652748919E+01  2.276922852E+03
1.653766833E+01  2.274206787E+03
1.654784746E+01  2.270768555E+03
1.655802659E+01  2.267708984E+03
1.656820572E+01  2.267891846E+03
1.657838485E+01  2.267267822E+03
1.658856398E+01  2.266030518E+03
1.659874311E+01  2.265682373E+03
1.660892224E+01  2.265581299E+03
1.661910137E+01  2.263772705E+03
1.662928050E+01  2.261652344E+03
1.663945963E+01  2.261713623E+03
1.664963876E+01  2.260818604E+03
1.665981789E+01  2.257537109E+03
1.666999702E+01  2.254293701E+03
1.668017615E+01  2.254042236E+03
1.669035528E+01  2.253265381E+03
1.670053442E+01  2.251336426E+03
1.671071355E+01  2.250232178E+03
1.672089268E+01  2.249679932E+03
1.673107181E+01  2.248529785E+03
1.674125094E+01  2.248322510E+03
1.675143007E+01  2.246247070E+03
1.676160920E+01  2.244261475E+03
1.677178833E+01  2.244725586E+03
1.678196746E+01  2.244361084E+03
1.679214659E+01  2.242394531E+03
1.680232572E+01  2.240943115E+03
1.681250485E+01  2.242094238E+03
1.682268398E+01  2.240725098E+03
1.683286311E+01  2.239677246E+03
1.684304224E+01  2.238496094E+03
1.685322137E+01  2.236270264E+03
1.686340050E+01  2.235261719E+03
1.687357964E+01  2.235569336E+03
1.688375877E+01  2.231722168E+03
1.689393790E+01  2.228861572E+03
1.690411703E+01  2.229172607E+03
1.691429616E+01  2.230134766E+03
1.692447529E+01  2.230358887E+03
1.693465442E+01  2.230074951E+03
1.694483355E+01  2.230058594E+03
1.695501268E+01  2.228364258E+03
1.696519181E+01  2.227217041E+03
1.697537094E+01  2.224467773E+03
1.698555007E+01  2.222115234E+03
1.699572920E+01  2.221487305E+03
1.700590833E+01  2.221302979E+03
1.701608746E+01  2.220082275E+03
1.702626659E+01  2.220490723E+03
1.703644573E+01  2.221185547E+03
1.704662486E+01  2.219975586E+03
1.705680399E+01  2.218363525E+03
1.706698312E+01  2.215894531E+03
1.707716225E+01  2.216107910E+03
1.708734138E+01  2.215712646E+03
1.709752051E+01  2.213983643E+03
1.710769964E+01  2.213137207E+03
1.711787877E+01  2.212236816E+03
1.712805790E+01  2.210095703E+03
1.713823703E+01  2.208357422E+03
1.714841616E+01  2.204319092E+03
1.715859529E+01  2.202939697E+03
1.716877442E+01  2.203396484E+03
1.717895355E+01  2.203212402E+03
1.718913268E+01  2.202816162E+03
1.719931182E+01  2.202637695E+03
1.720949095E+01  2.203204590E+03
1.721967008E+01  2.203469971E+03
1.722984921E+01  2.202518799E+03
1.724002834E+01  2.200291992E+03
1.725020747E+01  2.197739258E+03
1.726038660E+01  2.196132812E+03
1.727056573E+01  2.194383301E+03
1.728074486E+01  2.192675781E+03
1.729092399E+01  2.189178711E+03
1.730110312E+01  2.186889404E+03
1.731128225E+01  2.185395508E+03
1.732146138E+01  2.183330078E+03
1.733164051E+01  2.183079102E+03
1.734181964E+01  2.184707764E+03
1.735199877E+01  2.185105225E+03
1.736217791E+01  2.185343262E+03
1.737235704E+01  2.186605469E+03
1.738253617E+01  2.187575439E+03
1.739271530E+01  2.185660889E+03
1.740289443E+01  2.182211670E+03
1.741307356E+01  2.180650391E+03
1.742325269E+01  2.180238770E+03
1.743343182E+01  2.180063232E+03
1.744361095E+01  2.179623535E+03
1.745379008E+01  2.180247559E+03
1.746396921E+01  2.179753662E+03
1.747414834E+01  2.179404053E+03
1.748432747E+01  2.178303467E+03
1.749450660E+01  2.176958008E+03
1.750468573E+01  2.175077393E+03
1.751486486E+01  2.173654297E+03
1.752504400E+01  2.172552246E+03
1.753522313E+01  2.171354736E+03
1.754540226E+01  2.171720703E+03
1.755558139E+01  2.170499756E+03
1.756576052E+01  2.170802979E+03
1.757593965E+01  2.170920654E+03
1.758611878E+01  2.169331787E+03
1.759629791E+01  2.167324219E+03
1.760647704E+01  2.167590820E+03
1.761665617E+01  2.166939941E+03
1.762683530E+01  2.164481689E+03
1.763701443E+01  2.162952148E+03
1.764719356E+01  2.162414551E+03
1.765737269E+01  2.161843750E+03
1.766755182E+01  2.158655518E+03
1.767773095E+01  2.156917725E+03
1.768791009E+01  2.155757324E+03
1.769808922E+01  2.156935303E+03
1.770826835E+01  2.156065674E+03
1.771844748E+01  2.154018311E+03
1.772862661E+01  2.151806885E+03
1.773880574E+01  2.151819824E+03
1.774898487E+01  2.151365723E+03
1.775916400E+01  2.149926270E+03
1.776934313E+01  2.152338867E+03
1.777952226E+01  2.154210938E+03
1.778970139E+01  2.153197266E+03
1.779988052E+01  2.148066895E+03
1.781005965E+01  2.143998047E+03
1.782023878E+01  2.144094727E+03
1.783041791E+01  2.146379639E+03
1.784059704E+01  2.144097900E+03
1.785077618E+01  2.141823730E+03
1.786095531E+01  2.141202393E+03
1.787113444E+01  2.140260498E+03
1.788131357E+01  2.137927979E+03
1.789149270E+01  2.136472168E+03
1.790167183E+01  2.137552246E+03
1.791185096E+01  2.137021240E+03
1.792203009E+01  2.136839844E+03
1.793220922E+01  2.136349121E+03
1.794238835E+01  2.134068604E+03
1.795256748E+01  2.132547852E+03
1.796274661E+01  2.132501953E+03
1.797292574E+01  2.131773193E+03
1.798310487E+01  2.130296631E+03
1.799328400E+01  2.131347656E+03
1.800346313E+01  2.131269775E+03
1.801364226E+01  2.128227539E+03
1.802382140E+01  2.129572266E+03
1.803400053E+01  2.135098877E+03
1.804417966E+01  2.139642822E+03
1.805435879E+01  2.143327148E+03
1.806453792E+01  2.144267334E+03
1.807471705E+01  2.144369385E+03
1.808489618E+01  2.147637695E+03
1.809507531E+01  2.151655273E+03
1.810525444E+01  2.155083984E+03
1.811543357E+01  2.157845947E+03
1.812561270E+01  2.160124023E+03
1.813579183E+01  2.160042236E+03
1.814597096E+01  2.156926758E+03
1.815615009E+01  2.151975342E+03
1.816632922E+01  2.147678223E+03
1.817650835E+01  2.142321045E+03
1.818668749E+01  2.137479248E+03
1.819686662E+01  2.132291016E+03
1.820704575E+01  2.126246094E+03
1.821722488E+01  2.121870361E+03
1.822740401E+01  2.118249756E+03
1.823758314E+01  2.113594971E+03
1.824776227E+01  2.109920410E+03
1.825794140E+01  2.110065186E+03
1.826812053E+01  2.108245117E+03
1.827829966E+01  2.106039795E+03
1.828847879E+01  2.103957275E+03
1.829865792E+01  2.102306885E+03
1.830883705E+01  2.102637207E+03
1.831901618E+01  2.104466797E+03
1.832919531E+01  2.104363281E+03
1.833937444E+01  2.101471436E+03
1.834955358E+01  2.099690674E+03
1.835973271E+01  2.098589355E+03
1.836991184E+01  2.098394775E+03
1.838009097E+01  2.096854736E+03
1.839027010E+01  2.095811768E+03
1.840044923E+01  2.092451660E+03
1.841062836E+01  2.089586914E+03
1.842080749E+01  2.090788818E+03
1.843098662E+01  2.090598877E+03
1.844116575E+01  2.088562744E+03
1.845134488E+01  2.086722412E+03
1.846152401E+01  2.086568359E+03
1.847170314E+01  2.084954346E+03
1.848188227E+01  2.083468994E+03
1.849206140E+01  2.083507812E+03
1.850224053E+01  2.083802979E+03
1.851241967E+01  2.083107910E+03
1.852259880E+01  2.081947266E+03
1.853277793E+01  2.080311523E+03
1.854295706E+01  2.079490234E+03
1.855313619E+01  2.080144531E+03
1.856331532E+01  2.078141846E+03
1.857349445E+01  2.076093018E+03
1.858367358E+01  2.076429688E+03
1.859385271E+01  2.076344238E+03
1.860403184E+01  2.074847900E+03
1.861421097E+01  2.073649414E+03
1.862439010E+01  2.072596436E+03
1.863456923E+01  2.070852051E+03
1.864474836E+01  2.070598145E+03
1.865492749E+01  2.071620605E+03
1.866510662E+01  2.071730957E+03
1.867528576E+01  2.070716797E+03
1.868546489E+01  2.071272705E+03
1.869564402E+01  2.071458496E+03
1.870582315E+01  2.071469971E+03
1.871600228E+01  2.072812012E+03
1.872618141E+01  2.073744629E+03
1.873636054E+01  2.073922363E+03
1.874653967E+01  2.074372070E+03
1.875671880E+01  2.074410889E+03
1.876689793E+01  2.073320801E+03
1.877707706E+01  2.073934326E+03
1.878725619E+01  2.073081787E+03
1.879743532E+01  2.071238037E+03
1.880761445E+01  2.072203857E+03
1.881779358E+01  2.074349609E+03
1.882797271E+01  2.075177490E+03
1.883815185E+01  2.075676270E+03
1.884833098E+01  2.079260986E+03
1.885851011E+01  2.081476074E+03
1.886868924E+01  2.081026367E+03
1.887886837E+01  2.081687012E+03
1.888904750E+01  2.082674561E+03
1.889922663E+01  2.084751953E+03
1.890940576E+01  2.087358398E+03
1.891958489E+01  2.085879883E+03
1.892976402E+01  2.082013672E+03
1.893994315E+01  2.080668213E+03
1.895012228E+01  2.081534912E+03
1.896030141E+01  2.081219971E+03
1.897048054E+01  2.078297607E+03
1.898065967E+01  2.074612305E+03
1.899083880E+01  2.069991943E+03
1.900101793E+01  2.067102539E+03
1.901119707E+01  2.065509521E+03
1.902137620E+01  2.065401367E+03
1.903155533E+01  2.066389893E+03
1.904173446E+01  2.065586426E+03
1.905191359E+01  2.064544189E+03
1.906209272E+01  2.061621582E+03
1.907227185E+01  2.059514648E+03
1.908245098E+01  2.056373047E+03
1.909263011E+01  2.053134277E+03
1.910280924E+01  2.051341309E+03
1.911298837E+01  2.049971191E+03
1.912316750E+01  2.048632324E+03
1.913334663E+01  2.047582764E+03
1.914352576E+01  2.046360596E+03
1.915370489E+01  2.044414551E+03
1.916388402E+01  2.044542603E+03
1.917406316E+01  2.043407959E+03
1.918424229E+01  2.041754150E+03
1.919442142E+01  2.040412109E+03
1.920460055E+01  2.039388550E+03
1.921477968E+01  2.038249023E+03
1.922495881E+01  2.037558594E+03
1.923513794E+01  2.038086548E+03
1.924531707E+01  2.035916138E+03
1.925549620E+01  2.034752441E+03
1.926567533E+01  2.033106323E+03
1.927585446E+01  2.031971680E+03
1.928603359E+01  2.032002441E+03
1.929621272E+01  2.032148682E+03
1.930639185E+01  2.030424072E+03
1.931657098E+01  2.029543823E+03
1.932675011E+01  2.031193970E+03
1.933692925E+01  2.031466431E+03
1.934710838E+01  2.030120483E+03
1.935728751E+01  2.029212402E+03
1.936746664E+01  2.029156006E+03
1.937764577E+01  2.025876465E+03
1.938782490E+01  2.023174316E+03
1.939800403E+01  2.021776733E+03
1.940818316E+01  2.021070190E+03
1.941836229E+01  2.021400513E+03
1.942854142E+01  2.020641479E+03
1.943872055E+01  2.018942505E+03
1.944889968E+01  2.018139771E+03
1.945907881E+01  2.018850098E+03
1.946925794E+01  2.017791138E+03
1.947943707E+01  2.015024658E+03
1.948961620E+01  2.013235840E+03
1.949979534E+01  2.013754517E+03
1.950997447E+01  2.014317505E+03
1.952015360E+01  2.014606201E+03
1.953033273E+01  2.013418945E+03
1.954051186E+01  2.011131470E+03
1.955069099E+01  2.009395264E+03
1.956087012E+01  2.008284058E+03
1.957104925E+01  2.010512207E+03
1.958122838E+01  2.013242798E+03
1.959140751E+01  2.013324951E+03
1.960158664E+01  2.013886353E+03
1.961176577E+01  2.015363647E+03
1.962194490E+01  2.016708374E+03
1.963212403E+01  2.016880981E+03
1.964230316E+01  2.018108154E+03
1.965248229E+01  2.020771973E+03
1.966266143E+01  2.021391479E+03
1.967284056E+01  2.019901733E+03
1.968301969E+01  2.017690186E+03
1.969319882E+01  2.015623657E+03
1.970337795E+01  2.013540039E+03
1.971355708E+01  2.011624268E+03
1.972373621E+01  2.007630615E+03
1.973391534E+01  2.004363892E+03
1.974409447E+01  2.003058472E+03
1.975427360E+01  2.002493164E+03
1.976445273E+01  2.001664917E+03
1.977463186E+01  2.001519531E+03
1.978481099E+01  2.003697754E+03
1.979499012E+01  2.002652710E+03
1.980516925E+01  1.999422852E+03
1.981534838E+01  1.997399780E+03
1.982552752E+01  1.997139282E+03
1.983570665E+01  1.997550171E+03
1.984588578E+01  1.997856812E+03
1.985606491E+01  1.996670288E+03
1.986624404E+01  1.995412842E+03
1.987642317E+01  1.996359375E+03
1.988660230E+01  1.994417725E+03
1.989678143E+01  1.993410522E+03
1.990696056E+01  1.993742432E+03
1.991713969E+01  1.993761597E+03
1.992731882E+01  1.992830566E+03
1.993749795E+01  1.990929321E+03
1.994767708E+01  1.988537598E+03
1.995785621E+01  1.988272705E+03
1.996803534E+01  1.990705933E+03
1.997821447E+01  1.991390625E+03
1.998839360E+01  1.989303223E+03
1.999857274E+01  1.987250244E+03
2.000875187E+01  1.987901367E+03
2.001893100E+01  1.989116333E+03
2.002911013E+01  1.989240356E+03
2.003928926E+01  1.989155273E+03
2.004946839E+01  1.986351807E+03
2.005964752E+01  1.983497437E+03
2.006982665E+01  1.981950195E+03
2.008000578E+01  1.981016968E+03
2.009018491E+01  1.980562500E+03
2.010036404E+01  1.979477539E+03
2.011054317E+01  1.978211548E+03
2.012072230E+01  1.978186768E+03
2.013090143E+01  1.980336914E+03
2.014108056E+01  1.980026855E+03
2.015125969E+01  1.978484619E+03
2.016143883E+01  1.977368408E+03
2.017161796E+01  1.975293091E+03
2.018179709E+01  1.972625854E+03
2.019197622E+01  1.971372437E+03
2.020215535E+01  1.970200317E+03
2.021233448E+01  1.968749268E+03
2.022251361E+01  1.968159790E+03
2.023269274E+01  1.966458618E+03
2.024287187E+01  1.964293335E+03
2.025305100E+01  1.963084106E+03
2.026323013E+01  1.962157593E+03
2.027340926E+01  1.960749268E+03
2.028358839E+01  1.960408813E+03
2.029376752E+01  1.961817627E+03
2.030394665E+01  1.962441895E+03
2.031412578E+01  1.963306885E+03
2.032430492E+01  1.963178223E+03
2.033448405E+01  1.960624268E+03
2.034466318E+01  1.957441895E+03
2.035484231E+01  1.956401123E+03
2.036502144E+01  1.956705811E+03
2.037520057E+01  1.957373657E+03
2.038537970E+01  1.957482056E+03
2.039555883E+01  1.954672241E+03
2.040573796E+01  1.952872314E+03
2.041591709E+01  1.953496948E+03
2.042609622E+01  1.954784058E+03
2.043627535E+01  1.953979858E+03
2.044645448E+01  1.951605225E+03
2.045663361E+01  1.950113525E+03
2.046681274E+01  1.949698853E+03
2.047699187E+01  1.950136353E+03
2.048717101E+01  1.949161255E+03
2.049735014E+01  1.947839844E+03
2.050752927E+01  1.947000977E+03
2.051770840E+01  1.946723755E+03
2.052788753E+01  1.946396362E+03
2.053806666E+01  1.946250000E+03
2.054824579E+01  1.947270508E+03
2.055842492E+01  1.947526367E+03
2.056860405E+01  1.949427368E+03
2.057878318E+01  1.950455200E+03
2.058896231E+01  1.950390869E+03
2.059914144E+01  1.951313477E+03
2.060932057E+01  1.951596436E+03
2.061949970E+01  1.952800293E+03
2.062967883E+01  1.955775146E+03
2.063985796E+01  1.959400513E+03
2.065003710E+01  1.958382080E+03
2.066021623E+01  1.956291748E+03
2.067039536E+01  1.955318726E+03
2.068057449E+01  1.954873779E+03
2.069075362E+01  1.953102661E+03
2.070093275E+01  1.948999023E+03
2.071111188E+01  1.945679565E+03
2.072129101E+01  1.942080200E+03
2.073147014E+01  1.938636719E+03
2.074164927E+01  1.934104370E+03
2.075182840E+01  1.932298706E+03
2.076200753E+01  1.931074463E+03
2.077218666E+01  1.928946045E+03
2.078236579E+01  1.928526123E+03
2.079254492E+01  1.929629150E+03
2.080272405E+01  1.931042480E+03
2.081290319E+01  1.929616821E+03
2.082308232E+01  1.929582275E+03
2.083326145E+01  1.930582764E+03
2.084344058E+01  1.929641968E+03
2.085361971E+01  1.927296997E+03
2.086379884E+01  1.924864502E+03
2.087397797E+01  1.923252197E+03
2.088415710E+01  1.921417358E+03
2.089433623E+01  1.921865479E+03
2.090451536E+01  1.921727783E+03
2.091469449E+01  1.920994873E+03
2.092487362E+01  1.921301147E+03
2.093505275E+01  1.921540283E+03
2.094523188E+01  1.921718994E+03
2.095541101E+01  1.920448120E+03
2.096559014E+01  1.918032837E+03
2.097576927E+01  1.915199585E+03
2.098594841E+01  1.914823975E+03
2.099612754E+01  1.914870361E+03
2.100630667E+01  1.913891479E+03
2.101648580E+01  1.912505127E+03
2.102666493E+01  1.909170288E+03
2.103684406E+01  1.908614502E+03
2.104702319E+01  1.908884399E+03
2.105720232E+01  1.909094604E+03
2.106738145E+01  1.909308350E+03
2.107756058E+01  1.908277832E+03
2.108773971E+01  1.908762939E+03
2.109791884E+01  1.908771484E+03
2.110809797E+01  1.908056519E+03
2.111827710E+01  1.907088501E+03
2.112845623E+01  1.907274414E+03
2.113863536E+01  1.906972900E+03
2.114881450E+01  1.906294556E+03
2.115899363E+01  1.906042358E+03
2.116917276E+01  1.905715332E+03
2.117935189E+01  1.904828735E+03
2.118953102E+01  1.901201538E+03
2.119971015E+01  1.899861328E+03
2.120988928E+01  1.900882812E+03
2.122006841E+01  1.899578735E+03
2.123024754E+01  1.899218872E+03
2.124042667E+01  1.899885010E+03
2.125060580E+01  1.898996826E+03
2.126078493E+01  1.896883911E+03
2.127096406E+01  1.896658569E+03
2.128114319E+01  1.897245117E+03
2.129132232E+01  1.897908203E+03
2.130150145E+01  1.898497803E+03
2.131168059E+01  1.897847900E+03
2.132185972E+01  1.896909058E+03
2.133203885E+01  1.896068726E+03
2.134221798E+01  1.895766968E+03
2.135239711E+01  1.893948975E+03
2.136257624E+01  1.892755859E+03
2.137275537E+01  1.893304321E+03
2.138293450E+01  1.892316772E+03
2.139311363E+01  1.892462646E+03
2.140329276E+01  1.892579590E+03
2.141347189E+01  1.892025757E+03
2.142365102E+01  1.890194946E+03
2.143383015E+01  1.888756104E+03
2.144400928E+01  1.887032349E+03
2.145418841E+01  1.884841309E+03
2.146436754E+01  1.885017578E+03
2.147454668E+01  1.885927002E+03
2.148472581E+01  1.886267334E+03
2.149490494E+01  1.885856079E+03
2.150508407E+01  1.886452148E+03
2.151526320E+01  1.889234985E+03
2.152544233E+01  1.888951904E+03
2.153562146E+01  1.884575928E+03
2.154580059E+01  1.881719360E+03
2.155597972E+01  1.882537964E+03
2.156615885E+01  1.882890869E+03
2.157633798E+01  1.882218750E+03
2.158651711E+01  1.882580444E+03
2.159669624E+01  1.882797974E+03
2.160687537E+01  1.881837036E+03
2.161705450E+01  1.880747681E+03
2.162723363E+01  1.878173706E+03
2.163741277E+01  1.875355957E+03
2.164759190E+01  1.873802368E+03
2.165777103E+01  1.872658936E+03
2.166795016E+01  1.872593140E+03
2.167812929E+01  1.874521118E+03
2.168830842E+01  1.873882202E+03
2.169848755E+01  1.872569580E+03
2.170866668E+01  1.872070312E+03
2.171884581E+01  1.870691040E+03
2.172902494E+01  1.869961548E+03
2.173920407E+01  1.870751343E+03
2.174938320E+01  1.871516113E+03
2.175956233E+01  1.871060425E+03
2.176974146E+01  1.871265381E+03
2.177992059E+01  1.870098999E+03
2.179009972E+01  1.870442383E+03
2.180027886E+01  1.873203003E+03
2.181045799E+01  1.874012329E+03
2.182063712E+01  1.872015991E+03
2.183081625E+01  1.870100098E+03
2.184099538E+01  1.870100220E+03
2.185117451E+01  1.869357666E+03
2.186135364E+01  1.868923950E+03
2.187153277E+01  1.867444458E+03
2.188171190E+01  1.864309937E+03
2.189189103E+01  1.863935547E+03
2.190207016E+01  1.864040283E+03
2.191224929E+01  1.864582275E+03
2.192242842E+01  1.864936157E+03
2.193260755E+01  1.865644653E+03
2.194278668E+01  1.865664062E+03
2.195296581E+01  1.865677124E+03
2.196314495E+01  1.865992920E+03
2.197332408E+01  1.862906616E+03
2.198350321E+01  1.860234253E+03
2.199368234E+01  1.860160278E+03
2.200386147E+01  1.859950928E+03
2.201404060E+01  1.860970581E+03
2.202421973E+01  1.862029907E+03
2.203439886E+01  1.861421021E+03
2.204457799E+01  1.859304199E+03
2.205475712E+01  1.858861938E+03
2.206493625E+01  1.858987305E+03
2.207511538E+01  1.859146851E+03
2.208529451E+01  1.859903931E+03
2.209547364E+01  1.858401245E+03
2.210565277E+01  1.857099731E+03
2.211583190E+01  1.856668701E+03
2.212601103E+01  1.857081787E+03
2.213619017E+01  1.857805054E+03
2.214636930E+01  1.858195801E+03
2.215654843E+01  1.857021240E+03
2.216672756E+01  1.855392700E+03
2.217690669E+01  1.856684326E+03
2.218708582E+01  1.856408569E+03
2.219726495E+01  1.854345093E+03
2.220744408E+01  1.853486084E+03
2.221762321E+01  1.852121338E+03
2.222780234E+01  1.850083130E+03
2.223798147E+01  1.849434692E+03
2.224816060E+01  1.849409546E+03
2.225833973E+01  1.848176147E+03
2.226851886E+01  1.847883667E+03
2.227869799E+01  1.847307373E+03
2.228887712E+01  1.845965332E+03
2.229905626E+01  1.846633057E+03
2.230923539E+01  1.845266602E+03
2.231941452E+01  1.843129150E+03
2.232959365E+01  1.843479248E+03
2.233977278E+01  1.843306763E+03
2.234995191E+01  1.841504883E+03
2.236013104E+01  1.839778076E+03
2.237031017E+01  1.839496582E+03
2.238048930E+01  1.839883911E+03
2.239066843E+01  1.838605347E+03
2.240084756E+01  1.836204956E+03
2.241102669E+01  1.834556274E+03
2.242120582E+01  1.834559937E+03
2.243138495E+01  1.835501831E+03
2.244156408E+01  1.836734985E+03
2.245174321E+01  1.836837402E+03
2.246192235E+01  1.834920898E+03
2.247210148E+01  1.833458984E+03
2.248228061E+01  1.832993408E+03
2.249245974E+01  1.833808594E+03
2.250263887E+01  1.833833008E+03
2.251281800E+01  1.833733765E+03
2.252299713E+01  1.833902588E+03
2.253317626E+01  1.834301025E+03
2.254335539E+01  1.835501465E+03
2.255353452E+01  1.833534546E+03
2.256371365E+01  1.831025513E+03
2.257389278E+01  1.830496826E+03
2.258407191E+01  1.830951538E+03
2.259425104E+01  1.829643799E+03
2.260443017E+01  1.826934570E+03
2.261460930E+01  1.826383179E+03
2.262478844E+01  1.826029419E+03
2.263496757E+01  1.825938721E+03
2.264514670E+01  1.826043945E+03
2.265532583E+01  1.825733154E+03
2.266550496E+01  1.825102051E+03
2.267568409E+01  1.824085693E+03
2.268586322E+01  1.823658569E+03
2.269604235E+01  1.824435791E+03
2.270622148E+01  1.825609985E+03
2.271640061E+01  1.825283691E+03
2.272657974E+01  1.824353149E+03
2.273675887E+01  1.823817017E+03
2.274693800E+01  1.822161865E+03
2.275711713E+01  1.820770264E+03
2.276729626E+01  1.820132568E+03
2.277747539E+01  1.820822266E+03
2.278765453E+01  1.822439453E+03
2.279783366E+01  1.823407593E+03
2.280801279E+01  1.824524292E+03
2.281819192E+01  1.825607056E+03
2.282837105E+01  1.824984131E+03
2.283855018E+01  1.821443726E+03
2.284872931E+01  1.818445801E+03
2.285890844E+01  1.817991089E+03
2.286908757E+01  1.817383179E+03
2.287926670E+01  1.817391357E+03
2.288944583E+01  1.817047485E+03
2.289962496E+01  1.815611450E+03
2.290980409E+01  1.815012329E+03
2.291998322E+01  1.814275879E+03
2.293016235E+01  1.812937622E+03
2.294034148E+01  1.814272217E+03
2.295052062E+01  1.817616821E+03
2.296069975E+01  1.817637207E+03
2.297087888E+01  1.815862183E+03
2.298105801E+01  1.815374634E+03
2.299123714E+01  1.812663330E+03
2.300141627E+01  1.810943359E+03
2.301159540E+01  1.812002808E+03
2.302177453E+01  1.812313110E+03
2.303195366E+01  1.810789307E+03
2.304213279E+01  1.809677734E+03
2.305231192E+01  1.809517334E+03
2.306249105E+01  1.811057983E+03
2.307267018E+01  1.812694092E+03
2.308284931E+01  1.812452271E+03
2.309302844E+01  1.812221069E+03
2.310320757E+01  1.812653564E+03
2.311338670E+01  1.812304565E+03
2.312356584E+01  1.812544922E+03
2.313374497E+01  1.812631348E+03
2.314392410E+01  1.811669434E+03
2.315410323E+01  1.811126343E+03
2.316428236E+01  1.811350220E+03
2.317446149E+01  1.811081421E+03
2.318464062E+01  1.810687012E+03
2.319481975E+01  1.811806519E+03
2.320499888E+01  1.812836914E+03
2.321517801E+01  1.812419434E+03
2.322535714E+01  1.813040649E+03
2.323553627E+01  1.812745972E+03
2.324571540E+01  1.812473877E+03
2.325589453E+01  1.813357178E+03
2.326607366E+01  1.813338989E+03
2.327625279E+01  1.812157593E+03
2.328643193E+01  1.811679565E+03
2.329661106E+01  1.812421265E+03
2.330679019E+01  1.812267700E+03
2.331696932E+01  1.812986450E+03
2.332714845E+01  1.812708740E+03
2.333732758E+01  1.811360962E+03
2.334750671E+01  1.814076294E+03
2.335768584E+01  1.816316406E+03
2.336786497E+01  1.817025635E+03
2.337804410E+01  1.816856689E+03
2.338822323E+01  1.816404175E+03
2.339840236E+01  1.817553589E+03
2.340858149E+01  1.820608398E+03
2.341876062E+01  1.825042236E+03
2.342893975E+01  1.828552368E+03
2.343911888E+01  1.832490112E+03
2.344929802E+01  1.836889648E+03
2.345947715E+01  1.840901978E+03
2.346965628E+01  1.845008911E+03
2.347983541E+01  1.846633057E+03
2.349001454E+01  1.847334473E+03
2.350019367E+01  1.847370483E+03
2.351037280E+01  1.847895386E+03
2.352055193E+01  1.847355225E+03
2.353073106E+01  1.845142944E+03
2.354091019E+01  1.840652710E+03
2.355108932E+01  1.835403198E+03
2.356126845E+01  1.831536987E+03
2.357144758E+01  1.827600586E+03
2.358162671E+01  1.824222900E+03
2.359180584E+01  1.823037231E+03
2.360198497E+01  1.820773804E+03
2.361216411E+01  1.816277222E+03
2.362234324E+01  1.811568604E+03
2.363252237E+01  1.809447144E+03
2.364270150E+01  1.810877075E+03
2.365288063E+01  1.812779541E+03
2.366305976E+01  1.812103882E+03
2.367323889E+01  1.810065430E+03
2.368341802E+01  1.807674316E+03
2.369359715E+01  1.804267944E+03
2.370377628E+01  1.800683228E+03
2.371395541E+01  1.797918823E+03
2.372413454E+01  1.795299194E+03
2.373431367E+01  1.793322021E+03
2.374449280E+01  1.791633667E+03
2.375467193E+01  1.787890015E+03
2.376485106E+01  1.785265747E+03
2.377503020E+01  1.784252930E+03
2.378520933E+01  1.782844604E+03
2.379538846E+01  1.782203735E+03
2.380556759E+01  1.781918213E+03
2.381574672E+01  1.779575562E+03
2.382592585E+01  1.777854980E+03
2.383610498E+01  1.778264893E+03
2.384628411E+01  1.778575317E+03
2.385646324E+01  1.776834351E+03
2.386664237E+01  1.775773438E+03
2.387682150E+01  1.775196045E+03
2.388700063E+01  1.774756104E+03
2.389717976E+01  1.772443604E+03
2.390735889E+01  1.769355591E+03
2.391753802E+01  1.769455200E+03
2.392771715E+01  1.769148682E+03
2.393789629E+01  1.768005249E+03
2.394807542E+01  1.768168823E+03
2.395825455E+01  1.769144531E+03
2.396843368E+01  1.768287598E+03
2.397861281E+01  1.767997925E+03
2.398879194E+01  1.770158325E+03
2.399897107E+01  1.770100220E+03
2.400915020E+01  1.768836792E+03
2.401932933E+01  1.768524292E+03
2.402950846E+01  1.768850830E+03
2.403968759E+01  1.768724731E+03
2.404986672E+01  1.765996582E+03
2.406004585E+01  1.764003540E+03
2.407022498E+01  1.764275391E+03
2.408040411E+01  1.763597412E+03
2.409058324E+01  1.762529663E+03
2.410076237E+01  1.762749512E+03
2.411094151E+01  1.762536743E+03
2.412112064E+01  1.760975708E+03
2.413129977E+01  1.759941895E+03
2.414147890E+01  1.760225464E+03
2.415165803E+01  1.760685425E+03
2.416183716E+01  1.761829346E+03
2.417201629E+01  1.762157959E+03
2.418219542E+01  1.760806396E+03
2.419237455E+01  1.759201416E+03
2.420255368E+01  1.758794678E+03
2.421273281E+01  1.760295532E+03
2.422291194E+01  1.761157593E+03
2.423309107E+01  1.761458984E+03
2.424327020E+01  1.760840210E+03
2.425344933E+01  1.760113159E+03
2.426362846E+01  1.760718628E+03
2.427380760E+01  1.760577881E+03
2.428398673E+01  1.761314575E+03
2.429416586E+01  1.761093994E+03
2.430434499E+01  1.760414062E+03
2.431452412E+01  1.760764893E+03
2.432470325E+01  1.759721680E+03
2.433488238E+01  1.759000244E+03
2.434506151E+01  1.760456055E+03
2.435524064E+01  1.762712158E+03
2.436541977E+01  1.764520264E+03
2.437559890E+01  1.764809570E+03
2.438577803E+01  1.763761108E+03
2.439595716E+01  1.762142822E+03
2.440613629E+01  1.762657837E+03
2.441631542E+01  1.763242310E+03
2.442649455E+01  1.761991577E+03
2.443667369E+01  1.761951050E+03
2.444685282E+01  1.760349854E+03
2.445703195E+01  1.758331665E+03
2.446721108E+01  1.759526001E+03
2.447739021E+01  1.760403198E+03
2.448756934E+01  1.759300903E+03
2.449774847E+01  1.756878052E+03
2.450792760E+01  1.754828125E+03
2.451810673E+01  1.753917480E+03
2.452828586E+01  1.753165283E+03
2.453846499E+01  1.751692139E+03
2.454864412E+01  1.751363770E+03
2.455882325E+01  1.751163696E+03
2.456900238E+01  1.749950806E+03
2.457918151E+01  1.748898926E+03
2.458936064E+01  1.747766113E+03
2.459953978E+01  1.746374390E+03
2.460971891E+01  1.745036743E+03
2.461989804E+01  1.744772217E+03
2.463007717E+01  1.743288696E+03
2.464025630E+01  1.741675659E+03
2.465043543E+01  1.739970825E+03
2.466061456E+01  1.738945312E+03
2.467079369E+01  1.738506714E+03
2.468097282E+01  1.735991211E+03
2.469115195E+01  1.732612061E+03
2.470133108E+01  1.731627686E+03
2.471151021E+01  1.731085327E+03
2.472168934E+01  1.729951660E+03
2.473186847E+01  1.730325806E+03
2.474204760E+01  1.729877319E+03
2.475222673E+01  1.727461426E+03
2.476240587E+01  1.724990845E+03
2.477258500E+01  1.724712036E+03
2.478276413E+01  1.725526367E+03
2.479294326E+01  1.724626587E+03
2.480312239E+01  1.722251465E+03
2.481330152E+01  1.720874756E+03
2.482348065E+01  1.720791016E+03
2.483365978E+01  1.719380005E+03
2.484383891E+01  1.717645508E+03
2.485401804E+01  1.717016846E+03
2.486419717E+01  1.715817871E+03
2.487437630E+01  1.714740967E+03
2.488455543E+01  1.713177979E+03
2.489473456E+01  1.711373901E+03
2.490491369E+01  1.710594604E+03
2.491509282E+01  1.709765869E+03
2.492527196E+01  1.707805054E+03
2.493545109E+01  1.706434937E+03
2.494563022E+01  1.707154175E+03
2.495580935E+01  1.707479370E+03
2.496598848E+01  1.707347412E+03
2.497616761E+01  1.707837158E+03
2.498634674E+01  1.707536987E+03
2.499652587E+01  1.707360596E+03
2.500670500E+01  1.707059204E+03
2.501688413E+01  1.706432495E+03
2.502706326E+01  1.705775146E+03
2.503724239E+01  1.703391602E+03
2.504742152E+01  1.701346313E+03
2.505760065E+01  1.701023315E+03
2.506777978E+01  1.701142456E+03
2.507795891E+01  1.699787964E+03
2.508813804E+01  1.698684326E+03
2.509831718E+01  1.697464233E+03
2.510849631E+01  1.696000732E+03
2.511867544E+01  1.694667236E+03
2.512885457E+01  1.694035645E+03
2.513903370E+01  1.693376099E+03
2.514921283E+01  1.694338623E+03
2.515939196E+01  1.694662476E+03
2.516957109E+01  1.694295898E+03
2.517975022E+01  1.694245361E+03
2.518992935E+01  1.693826782E+03
2.520010848E+01  1.693859985E+03
2.521028761E+01  1.694210938E+03
2.522046674E+01  1.693688110E+03
2.523064587E+01  1.691924316E+03
2.524082500E+01  1.692511230E+03
2.525100413E+01  1.694258301E+03
2.526118327E+01  1.693464355E+03
2.527136240E+01  1.691813843E+03
2.528154153E+01  1.689591431E+03
2.529172066E+01  1.687167480E+03
2.530189979E+01  1.686195557E+03
2.531207892E+01  1.685463257E+03
2.532225805E+01  1.685010010E+03
2.533243718E+01  1.685588135E+03
2.534261631E+01  1.685503906E+03
2.535279544E+01  1.684511475E+03
2.536297457E+01  1.684016602E+03
2.537315370E+01  1.682332397E+03
2.538333283E+01  1.680401367E+03
2.539351196E+01  1.680060303E+03
2.540369109E+01  1.680334595E+03
2.541387022E+01  1.681387451E+03
2.542404936E+01  1.680364380E+03
2.543422849E+01  1.678492065E+03
2.544440762E+01  1.678317261E+03
2.545458675E+01  1.677637939E+03
2.546476588E+01  1.675868286E+03
2.547494501E+01  1.674862793E+03
2.548512414E+01  1.674835205E+03
2.549530327E+01  1.674202148E+03
2.550548240E+01  1.674090088E+03
2.551566153E+01  1.673096680E+03
2.552584066E+01  1.671817871E+03
2.553601979E+01  1.672872070E+03
2.554619892E+01  1.674047485E+03
2.555637805E+01  1.673221436E+03
2.556655718E+01  1.671239136E+03
2.557673631E+01  1.668922363E+03
2.558691545E+01  1.667766113E+03
2.559709458E+01  1.669502930E+03
2.560727371E+01  1.669579956E+03
2.561745284E+01  1.667254272E+03
2.562763197E+01  1.664669556E+03
2.563781110E+01  1.664590210E+03
2.564799023E+01  1.666700439E+03
2.565816936E+01  1.667550537E+03
2.566834849E+01  1.667397095E+03
2.567852762E+01  1.667291260E+03
2.568870675E+01  1.666423584E+03
2.569888588E+01  1.664942139E+03
2.570906501E+01  1.663359253E+03
2.571924414E+01  1.662099976E+03
2.572942327E+01  1.662711426E+03
2.573960240E+01  1.662789673E+03
2.574978154E+01  1.660690674E+03
2.575996067E+01  1.660498291E+03
2.577013980E+01  1.663306763E+03
2.578031893E+01  1.663055908E+03
2.579049806E+01  1.659703613E+03
2.580067719E+01  1.657437012E+03
2.581085632E+01  1.657567139E+03
2.582103545E+01  1.658228271E+03
2.583121458E+01  1.658310059E+03
2.584139371E+01  1.656898071E+03
2.585157284E+01  1.655425293E+03
2.586175197E+01  1.655521362E+03
2.587193110E+01  1.654960571E+03
2.588211023E+01  1.655919678E+03
2.589228936E+01  1.655992676E+03
2.590246849E+01  1.654178833E+03
2.591264763E+01  1.653413818E+03
2.592282676E+01  1.653235474E+03
2.593300589E+01  1.652715820E+03
2.594318502E+01  1.653094971E+03
2.595336415E+01  1.652680054E+03
2.596354328E+01  1.651369873E+03
2.597372241E+01  1.651750000E+03
2.598390154E+01  1.651468994E+03
2.599408067E+01  1.650553223E+03
2.600425980E+01  1.649930786E+03
2.601443893E+01  1.648180054E+03
2.602461806E+01  1.646897705E+03
2.603479719E+01  1.647455322E+03
2.604497632E+01  1.647396973E+03
2.605515545E+01  1.647488770E+03
2.606533458E+01  1.647194214E+03
2.607551372E+01  1.645809692E+03
2.608569285E+01  1.645020752E+03
2.609587198E+01  1.644082642E+03
2.610605111E+01  1.643501343E+03
2.611623024E+01  1.643955444E+03
2.612640937E+01  1.643291504E+03
2.613658850E+01  1.642774292E+03
2.614676763E+01  1.641880249E+03
2.615694676E+01  1.639159546E+03
2.616712589E+01  1.638097290E+03
2.617730502E+01  1.639397949E+03
2.618748415E+01  1.640091553E+03
2.619766328E+01  1.638842529E+03
2.620784241E+01  1.638781372E+03
2.621802154E+01  1.638723022E+03
2.622820067E+01  1.638187134E+03
2.623837980E+01  1.638156982E+03
2.624855894E+01  1.636946777E+03
2.625873807E+01  1.636823242E+03
2.626891720E+01  1.637477295E+03
2.627909633E+01  1.636744751E+03
2.628927546E+01  1.636091309E+03
2.629945459E+01  1.635300781E+03
2.630963372E+01  1.633979004E+03
2.631981285E+01  1.634654297E+03
2.632999198E+01  1.636162720E+03
2.634017111E+01  1.635143799E+03
2.635035024E+01  1.633246338E+03
2.636052937E+01  1.631785034E+03
2.637070850E+01  1.631125732E+03
2.638088763E+01  1.630021973E+03
2.639106676E+01  1.629727295E+03
2.640124589E+01  1.630686157E+03
2.641142503E+01  1.631208496E+03
2.642160416E+01  1.631432617E+03
2.643178329E+01  1.630694092E+03
2.644196242E+01  1.629813232E+03
2.645214155E+01  1.629677490E+03
2.646232068E+01  1.629930664E+03
2.647249981E+01  1.630057373E+03
2.648267894E+01  1.628750244E+03
2.649285807E+01  1.627742798E+03
2.650303720E+01  1.627354858E+03
2.651321633E+01  1.624957153E+03
2.652339546E+01  1.624041748E+03
2.653357459E+01  1.624854492E+03
2.654375372E+01  1.624742676E+03
2.655393285E+01  1.625164185E+03
2.656411198E+01  1.626724976E+03
2.657429112E+01  1.626438232E+03
2.658447025E+01  1.624571533E+03
2.659464938E+01  1.621406982E+03
2.660482851E+01  1.620081299E+03
2.661500764E+01  1.622563843E+03
2.662518677E+01  1.623726807E+03
2.663536590E+01  1.622547729E+03
2.664554503E+01  1.621087891E+03
2.665572416E+01  1.619100830E+03
2.666590329E+01  1.617404175E+03
2.667608242E+01  1.616412720E+03
2.668626155E+01  1.614904175E+03
2.669644068E+01  1.614438110E+03
2.670661981E+01  1.614885620E+03
2.671679894E+01  1.613949463E+03
2.672697807E+01  1.612006470E+03
2.673715721E+01  1.610437378E+03
2.674733634E+01  1.610556641E+03
2.675751547E+01  1.611675903E+03
2.676769460E+01  1.612000244E+03
2.677787373E+01  1.611340576E+03
2.678805286E+01  1.610124146E+03
2.679823199E+01  1.609098877E+03
2.680841112E+01  1.608221680E+03
2.681859025E+01  1.608439331E+03
2.682876938E+01  1.608575073E+03
2.683894851E+01  1.607007446E+03
2.684912764E+01  1.605890747E+03
2.685930677E+01  1.606366089E+03
2.686948590E+01  1.608083496E+03
2.687966503E+01  1.609781616E+03
2.688984416E+01  1.608463989E+03
2.690002330E+01  1.608172485E+03
2.691020243E+01  1.609196167E+03
2.692038156E+01  1.608130371E+03
2.693056069E+01  1.607599976E+03
2.694073982E+01  1.606019653E+03
2.695091895E+01  1.604345703E+03
2.696109808E+01  1.605134277E+03
2.697127721E+01  1.605016113E+03
2.698145634E+01  1.604600708E+03
2.699163547E+01  1.605163452E+03
2.700181460E+01  1.603379761E+03
2.701199373E+01  1.600769897E+03
2.702217286E+01  1.600268188E+03
2.703235199E+01  1.600475708E+03
2.704253112E+01  1.600230347E+03
2.705271025E+01  1.599699463E+03
2.706288939E+01  1.598836670E+03
2.707306852E+01  1.599775024E+03
2.708324765E+01  1.600906250E+03
2.709342678E+01  1.598723145E+03
2.710360591E+01  1.596458862E+03
2.711378504E+01  1.595867432E+03
2.712396417E+01  1.597465698E+03
2.713414330E+01  1.599012085E+03
2.714432243E+01  1.599321411E+03
2.715450156E+01  1.598666016E+03
2.716468069E+01  1.597639893E+03
2.717485982E+01  1.596924927E+03
2.718503895E+01  1.597931885E+03
2.719521808E+01  1.598314575E+03
2.720539721E+01  1.597791016E+03
2.721557634E+01  1.597583374E+03
2.722575547E+01  1.596021118E+03
2.723593461E+01  1.594020630E+03
2.724611374E+01  1.592588135E+03
2.725629287E+01  1.592829590E+03
2.726647200E+01  1.593285278E+03
2.727665113E+01  1.592917847E+03
2.728683026E+01  1.590630127E+03
2.729700939E+01  1.589617432E+03
2.730718852E+01  1.589753662E+03
2.731736765E+01  1.589628662E+03
2.732754678E+01  1.589574341E+03
2.733772591E+01  1.591142090E+03
2.734790504E+01  1.592170288E+03
2.735808417E+01  1.590849243E+03
2.736826330E+01  1.589830444E+03
2.737844243E+01  1.589192261E+03
2.738862156E+01  1.589980591E+03
2.739880070E+01  1.591615356E+03
2.740897983E+01  1.590582397E+03
2.741915896E+01  1.588794312E+03
2.742933809E+01  1.588489014E+03
2.743951722E+01  1.589177612E+03
2.744969635E+01  1.590471069E+03
2.745987548E+01  1.590611938E+03
2.747005461E+01  1.589678955E+03
2.748023374E+01  1.590000610E+03
2.749041287E+01  1.590426636E+03
2.750059200E+01  1.590986694E+03
2.751077113E+01  1.592536743E+03
2.752095026E+01  1.592625244E+03
2.753112939E+01  1.592794189E+03
2.754130852E+01  1.594009399E+03
2.755148765E+01  1.594815918E+03
2.756166679E+01  1.595231323E+03
2.757184592E+01  1.595529663E+03
2.758202505E+01  1.596185547E+03
2.759220418E+01  1.597698853E+03
2.760238331E+01  1.597959595E+03
2.761256244E+01  1.597821167E+03
2.762274157E+01  1.600953491E+03
2.763292070E+01  1.604220581E+03
2.764309983E+01  1.605507446E+03
2.765327896E+01  1.606144775E+03
2.766345809E+01  1.608055542E+03
2.767363722E+01  1.611807739E+03
2.768381635E+01  1.613098633E+03
2.769399548E+01  1.612213135E+03
2.770417461E+01  1.612612915E+03
2.771435374E+01  1.614268311E+03
2.772453288E+01  1.617957275E+03
2.773471201E+01  1.622585938E+03
2.774489114E+01  1.624939941E+03
2.775507027E+01  1.626351929E+03
2.776524940E+01  1.628363159E+03
2.777542853E+01  1.630521240E+03
2.778560766E+01  1.633175659E+03
2.779578679E+01  1.634642944E+03
2.780596592E+01  1.635845825E+03
2.781614505E+01  1.637058838E+03
2.782632418E+01  1.638605347E+03
2.783650331E+01  1.639781982E+03
2.784668244E+01  1.639771851E+03
2.785686157E+01  1.639623291E+03
2.786704070E+01  1.640119141E+03
2.787721983E+01  1.639280151E+03
2.788739897E+01  1.636653687E+03
2.789757810E+01  1.635193481E+03
2.790775723E+01  1.636005493E+03
2.791793636E+01  1.637041626E+03
2.792811549E+01  1.637455322E+03
2.793829462E+01  1.637115356E+03
2.794847375E+01  1.635218628E+03
2.795865288E+01  1.632544922E+03
2.796883201E+01  1.630588867E+03
2.797901114E+01  1.628293091E+03
2.798919027E+01  1.624616455E+03
2.799936940E+01  1.621898315E+03
2.800954853E+01  1.619210938E+03
2.801972766E+01  1.616223755E+03
2.802990679E+01  1.613489624E+03
2.804008592E+01  1.611806274E+03
2.805026506E+01  1.610506104E+03
2.806044419E+01  1.607783936E+03
2.807062332E+01  1.604768677E+03
2.808080245E+01  1.601982178E+03
2.809098158E+01  1.598885376E+03
2.810116071E+01  1.596854248E+03
2.811133984E+01  1.595786377E+03
2.812151897E+01  1.594835449E+03
2.813169810E+01  1.593426392E+03
2.814187723E+01  1.588794556E+03
2.815205636E+01  1.582926636E+03
2.816223549E+01  1.579726562E+03
2.817241462E+01  1.578778320E+03
2.818259375E+01  1.576674438E+03
2.819277288E+01  1.573947876E+03
2.820295201E+01  1.570822998E+03
2.821313114E+01  1.568901978E+03
2.822331028E+01  1.568356934E+03
2.823348941E+01  1.568267212E+03
2.824366854E+01  1.568008423E+03
2.825384767E+01  1.566425415E+03
2.826402680E+01  1.564210327E+03
2.827420593E+01  1.563121216E+03
2.828438506E+01  1.560940063E+03
2.829456419E+01  1.559446411E+03
2.830474332E+01  1.559141846E+03
2.831492245E+01  1.557547974E+03
2.832510158E+01  1.555300171E+03
2.833528071E+01  1.553168091E+03
2.834545984E+01  1.552557739E+03
2.835563897E+01  1.551645508E+03
2.836581810E+01  1.551046753E+03
2.837599723E+01  1.551333862E+03
2.838617637E+01  1.550359131E+03
2.839635550E+01  1.548520386E+03
2.840653463E+01  1.548850464E+03
2.841671376E+01  1.549564819E+03
2.842689289E+01  1.547466553E+03
2.843707202E+01  1.545911987E+03
2.844725115E+01  1.545666138E+03
2.845743028E+01  1.544550903E+03
2.846760941E+01  1.542606079E+03
2.847778854E+01  1.540765991E+03
2.848796767E+01  1.541500244E+03
2.849814680E+01  1.543093506E+03
2.850832593E+01  1.542477783E+03
2.851850506E+01  1.541868408E+03
2.852868419E+01  1.541524292E+03
2.853886332E+01  1.539355347E+03
2.854904246E+01  1.538168823E+03
2.855922159E+01  1.538608765E+03
2.856940072E+01  1.538353394E+03
2.857957985E+01  1.537281616E+03
2.858975898E+01  1.536226318E+03
2.859993811E+01  1.534917603E+03
2.861011724E+01  1.533686279E+03
2.862029637E+01  1.533629028E+03
2.863047550E+01  1.534826172E+03
2.864065463E+01  1.535150024E+03
2.865083376E+01  1.534571533E+03
2.866101289E+01  1.534321899E+03
2.867119202E+01  1.533143555E+03
2.868137115E+01  1.531083862E+03
2.869155028E+01  1.530705078E+03
2.870172941E+01  1.531091187E+03
2.871190855E+01  1.531064453E+03
2.872208768E+01  1.529996460E+03
2.873226681E+01  1.528046021E+03
2.874244594E+01  1.528194214E+03
2.875262507E+01  1.528340454E+03
2.876280420E+01  1.527026245E+03
2.877298333E+01  1.527187256E+03
2.878316246E+01  1.527329590E+03
2.879334159E+01  1.526116699E+03
2.880352072E+01  1.524789673E+03
2.881369985E+01  1.524519409E+03
2.882387898E+01  1.525249634E+03
2.883405811E+01  1.523287598E+03
2.884423724E+01  1.520067505E+03
2.885441637E+01  1.519186035E+03
2.886459550E+01  1.518508423E+03
2.887477464E+01  1.515665405E+03
2.888495377E+01  1.514524780E+03
2.889513290E+01  1.512221069E+03
2.890531203E+01  1.509782227E+03
2.891549116E+01  1.508015991E+03
2.892567029E+01  1.506060059E+03
2.893584942E+01  1.504673096E+03
2.894602855E+01  1.503645508E+03
2.895620768E+01  1.502017700E+03
2.896638681E+01  1.499227051E+03
2.897656594E+01  1.494810303E+03
2.898674507E+01  1.490187866E+03
2.899692420E+01  1.484683472E+03
2.900710333E+01  1.479818237E+03
2.901728246E+01  1.476998901E+03
2.902746159E+01  1.474176270E+03
2.903764073E+01  1.470835571E+03
2.904781986E+01  1.466788208E+03
2.905799899E+01  1.460941895E+03
2.906817812E+01  1.455605713E+03
2.907835725E+01  1.451383667E+03
2.908853638E+01  1.446617676E+03
2.909871551E+01  1.440883911E+03
2.910889464E+01  1.436209961E+03
2.911907377E+01  1.430761475E+03
2.912925290E+01  1.426306396E+03
2.913943203E+01  1.422035156E+03
2.914961116E+01  1.418793213E+03
2.915979029E+01  1.414952393E+03
2.916996942E+01  1.409192383E+03
2.918014855E+01  1.404710449E+03
2.919032768E+01  1.399686646E+03
2.920050681E+01  1.393518188E+03
2.921068595E+01  1.388084106E+03
2.922086508E+01  1.382614014E+03
2.923104421E+01  1.377260986E+03
2.924122334E+01  1.372054810E+03
2.925140247E+01  1.365907715E+03
2.926158160E+01  1.359472534E+03
2.927176073E+01  1.353610474E+03
2.928193986E+01  1.347287598E+03
2.929211899E+01  1.342718262E+03
2.930229812E+01  1.337662476E+03
2.931247725E+01  1.331327637E+03
2.932265638E+01  1.325541626E+03
2.933283551E+01  1.319819580E+03
2.934301464E+01  1.313825562E+03
2.935319377E+01  1.307683838E+03
2.936337290E+01  1.302106689E+03
2.937355204E+01  1.298082520E+03
2.938373117E+01  1.293272949E+03
2.939391030E+01  1.287644409E+03
2.940408943E+01  1.281888184E+03
2.941426856E+01  1.276428467E+03
2.942444769E+01  1.271266357E+03
2.943462682E+01  1.264597290E+03
2.944480595E+01  1.257170776E+03
2.945498508E+01  1.251081543E+03
2.946516421E+01  1.246047363E+03
2.947534334E+01  1.240951050E+03
2.948552247E+01  1.235182007E+03
2.949570160E+01  1.228813110E+03
2.950588073E+01  1.222220703E+03
2.951605986E+01  1.216914551E+03
2.952623899E+01  1.210696533E+03
2.953641813E+01  1.204022095E+03
2.954659726E+01  1.198382202E+03
2.955677639E+01  1.192853149E+03
2.956695552E+01  1.186401123E+03
2.957713465E+01  1.181203735E+03
2.958731378E+01  1.177254272E+03
2.959749291E+01  1.173369995E+03
2.960767204E+01  1.167954224E+03
2.961785117E+01  1.162151245E+03
2.962803030E+01  1.156154663E+03
2.963820943E+01  1.150617554E+03
2.964838856E+01  1.146100952E+03
2.965856769E+01  1.142387939E+03
2.966874682E+01  1.138302368E+03
2.967892595E+01  1.132938477E+03
2.968910508E+01  1.127125610E+03
2.969928422E+01  1.121235596E+03
2.970946335E+01  1.115499756E+03
2.971964248E+01  1.110589966E+03
2.972982161E+01  1.107650513E+03
2.974000074E+01  1.103713013E+03
2.975017987E+01  1.099392334E+03
2.976035900E+01  1.096060059E+03
2.977053813E+01  1.092756592E+03
2.978071726E+01  1.088074097E+03
2.979089639E+01  1.082284058E+03
2.980107552E+01  1.078214111E+03
2.981125465E+01  1.074647217E+03
2.982143378E+01  1.070714600E+03
2.983161291E+01  1.066902954E+03
2.984179204E+01  1.062890625E+03
2.985197117E+01  1.059311523E+03
2.986215031E+01  1.056436523E+03
2.987232944E+01  1.054146484E+03
2.988250857E+01  1.051873535E+03
2.989268770E+01  1.048423340E+03
2.990286683E+01  1.043806885E+03
2.991304596E+01  1.041075439E+03
2.992322509E+01  1.038160034E+03
2.993340422E+01  1.034121704E+03
2.994358335E+01  1.030682373E+03
2.995376248E+01  1.027369019E+03
2.996394161E+01  1.024101440E+03
2.997412074E+01  1.020158997E+03
2.998429987E+01  1.015524902E+03
2.999447900E+01  1.010742615E+03
3.000465813E+01  1.006822937E+03
3.001483726E+01  1.004796204E+03
3.002501640E+01  1.001942017E+03
3.003519553E+01  9.979290771E+02
3.004537466E+01  9.955764771E+02
3.005555379E+01  9.956334229E+02
3.006573292E+01  9.955740967E+02
3.007591205E+01  9.936023560E+02
3.008609118E+01  9.921432495E+02
3.009627031E+01  9.908614502E+02
3.010644944E+01  9.897116699E+02
3.011662857E+01  9.894949341E+02
3.012680770E+01  9.891598511E+02
3.013698683E+01  9.888703613E+02
3.014716596E+01  9.881297607E+02
3.015734509E+01  9.872797852E+02
3.016752422E+01  9.867395020E+02
3.017770335E+01  9.873001709E+02
3.018788249E+01  9.862310181E+02
3.019806162E+01  9.839722290E+02
3.020824075E+01  9.835421143E+02
3.021841988E+01  9.837348633E+02
3.022859901E+01  9.834993286E+02
3.023877814E+01  9.835277100E+02
3.024895727E+01  9.844396362E+02
3.025913640E+01  9.852268066E+02
3.026931553E+01  9.844889526E+02
3.027949466E+01  9.831051636E+02
3.028967379E+01  9.820952148E+02
3.029985292E+01  9.811433105E+02
3.031003205E+01  9.806083984E+02
3.032021118E+01  9.799945679E+02
3.033039031E+01  9.803317261E+02
3.034056944E+01  9.811618652E+02
3.035074857E+01  9.817126465E+02
3.036092771E+01  9.811584473E+02
3.037110684E+01  9.806538086E+02
3.038128597E+01  9.802054443E+02
3.039146510E+01  9.795360718E+02
3.040164423E+01  9.798047485E+02
3.041182336E+01  9.790075684E+02
3.042200249E+01  9.776262207E+02
3.043218162E+01  9.770397949E+02
3.044236075E+01  9.763118896E+02
3.045253988E+01  9.760939941E+02
3.046271901E+01  9.763355103E+02
3.047289814E+01  9.758240967E+02
3.048307727E+01  9.756713867E+02
3.049325640E+01  9.759196167E+02
3.050343553E+01  9.757138672E+02
3.051361466E+01  9.756791992E+02
3.052379380E+01  9.745139771E+02
3.053397293E+01  9.716356201E+02
3.054415206E+01  9.698206177E+02
3.055433119E+01  9.705395508E+02
3.056451032E+01  9.719351807E+02
3.057468945E+01  9.724420776E+02
3.058486858E+01  9.719093018E+02
3.059504771E+01  9.712100220E+02
3.060522684E+01  9.707581177E+02
3.061540597E+01  9.700888672E+02
3.062558510E+01  9.690122070E+02
3.063576423E+01  9.676744385E+02
3.064594336E+01  9.684074097E+02
3.065612249E+01  9.687122192E+02
3.066630162E+01  9.676400757E+02
3.067648075E+01  9.665479126E+02
3.068665989E+01  9.652589722E+02
3.069683902E+01  9.642771606E+02
3.070701815E+01  9.624891357E+02
3.071719728E+01  9.616981201E+02
3.072737641E+01  9.626125488E+02
3.073755554E+01  9.626955566E+02
3.074773467E+01  9.623712158E+02
3.075791380E+01  9.610681152E+02
3.076809293E+01  9.601170044E+02
3.077827206E+01  9.595910645E+02
3.078845119E+01  9.587134399E+02
3.079863032E+01  9.578342285E+02
3.080880945E+01  9.579366455E+02
3.081898858E+01  9.582241821E+02
3.082916771E+01  9.574729614E+02
3.083934684E+01  9.576198730E+02
3.084952598E+01  9.631921997E+02
3.085970511E+01  9.766530762E+02
3.086988424E+01  9.852758179E+02
3.088006337E+01  9.880784912E+02
3.089024250E+01  9.906875610E+02
3.090042163E+01  9.919891968E+02
3.091060076E+01  9.924923706E+02
3.092077989E+01  9.932336426E+02
3.093095902E+01  9.926560669E+02
3.094113815E+01  9.932965698E+02
3.095131728E+01  9.955290527E+02
3.096149641E+01  9.975075684E+02
3.097167554E+01  9.989544678E+02
3.098185467E+01  1.000317566E+03
3.099203380E+01  1.000353821E+03
3.100221293E+01  9.994238281E+02
3.101239207E+01  1.000599548E+03
3.102257120E+01  1.003353821E+03
3.103275033E+01  1.005897156E+03
3.104292946E+01  1.006739380E+03
3.105310859E+01  1.007117920E+03
3.106328772E+01  1.007169067E+03
3.107346685E+01  1.005190979E+03
3.108364598E+01  1.004600891E+03
3.109382511E+01  1.005521423E+03
3.110400424E+01  1.006193787E+03
3.111418337E+01  1.005689697E+03
3.112436250E+01  1.005253906E+03
3.113454163E+01  1.005367859E+03
3.114472076E+01  1.006286133E+03
3.115489989E+01  1.008371521E+03
3.116507902E+01  1.007619019E+03
3.117525816E+01  1.007099976E+03
3.118543729E+01  1.008809326E+03
3.119561642E+01  1.008889709E+03
3.120579555E+01  1.007456299E+03
3.121597468E+01  1.009010620E+03
3.122615381E+01  1.009414368E+03
3.123633294E+01  1.008459961E+03
3.124651207E+01  1.007809265E+03
3.125669120E+01  1.006764221E+03
3.126687033E+01  1.005802429E+03
3.127704946E+01  1.005269470E+03
3.128722859E+01  1.005408997E+03
3.129740772E+01  1.006385132E+03
3.130758685E+01  1.007514221E+03
3.131776598E+01  1.009291016E+03
3.132794511E+01  1.009311951E+03
3.133812424E+01  1.007732849E+03
3.134830338E+01  1.008228394E+03
3.135848251E+01  1.008465271E+03
3.136866164E+01  1.007598572E+03
3.137884077E+01  1.008035828E+03
3.138901990E+01  1.007823669E+03
3.139919903E+01  1.006121765E+03
3.140937816E+01  1.004313538E+03
3.141955729E+01  1.003501709E+03
3.142973642E+01  1.003904053E+03
3.143991555E+01  1.003703674E+03
3.145009468E+01  1.003314697E+03
3.146027381E+01  1.003531189E+03
3.147045294E+01  1.003988037E+03
3.148063207E+01  1.005834412E+03
3.149081120E+01  1.005996765E+03
3.150099033E+01  1.004455750E+03
3.151116947E+01  1.003070129E+03
3.152134860E+01  1.004218323E+03
3.153152773E+01  1.006172913E+03
3.154170686E+01  1.004922485E+03
3.155188599E+01  1.002142273E+03
3.156206512E+01  1.000792236E+03
3.157224425E+01  1.002771179E+03
3.158242338E+01  1.003531006E+03
3.159260251E+01  1.002481628E+03
3.160278164E+01  1.002782288E+03
3.161296077E+01  1.003767456E+03
3.162313990E+01  1.003775269E+03
3.163331903E+01  1.001618896E+03
3.164349816E+01  1.000274109E+03
3.165367729E+01  1.001043640E+03
3.166385642E+01  1.001593140E+03
3.167403556E+01  1.002048828E+03
3.168421469E+01  1.002393555E+03
3.169439382E+01  1.000858398E+03
3.170457295E+01  1.000268555E+03
3.171475208E+01  1.002043518E+03
3.172493121E+01  1.003415222E+03
3.173511034E+01  1.002530457E+03
3.174528947E+01  1.002014160E+03
3.175546860E+01  1.002886230E+03
3.176564773E+01  1.002437500E+03
3.177582686E+01  1.002150818E+03
3.178600599E+01  1.001070374E+03
3.179618512E+01  9.994846802E+02
3.180636425E+01  9.976250000E+02
3.181654338E+01  9.965410767E+02
3.182672251E+01  9.959971924E+02
3.183690165E+01  9.957516479E+02
3.184708078E+01  9.959235229E+02
3.185725991E+01  9.961138916E+02
3.186743904E+01  9.956820679E+02
3.187761817E+01  9.949408569E+02
3.188779730E+01  9.941509399E+02
3.189797643E+01  9.935088501E+02
3.190815556E+01  9.933336792E+02
3.191833469E+01  9.920519409E+02
3.192851382E+01  9.912705688E+02
3.193869295E+01  9.920827637E+02
3.194887208E+01  9.924699707E+02
3.195905121E+01  9.918591919E+02
3.196923034E+01  9.909491577E+02
3.197940947E+01  9.910066528E+02
3.198958860E+01  9.906719971E+02
3.199976774E+01  9.897994995E+02
3.200994687E+01  9.898334351E+02
3.202012600E+01  9.892846680E+02
3.203030513E+01  9.873479004E+02
3.204048426E+01  9.868032837E+02
3.205066339E+01  9.879025269E+02
3.206084252E+01  9.880392456E+02
3.207102165E+01  9.866397095E+02
3.208120078E+01  9.850437622E+02
3.209137991E+01  9.821687622E+02
3.210155904E+01  9.809422607E+02
3.211173817E+01  9.808199463E+02
3.212191730E+01  9.785643921E+02
3.213209643E+01  9.769962158E+02
3.214227556E+01  9.776198730E+02
3.215245469E+01  9.768504639E+02
3.216263383E+01  9.753693848E+02
3.217281296E+01  9.757282104E+02
3.218299209E+01  9.745946655E+02
3.219317122E+01  9.724710083E+02
3.220335035E+01  9.717056885E+02
3.221352948E+01  9.709812622E+02
3.222370861E+01  9.699235229E+02
3.223388774E+01  9.799328003E+02
3.224406687E+01  1.012402405E+03
3.225424600E+01  1.045679565E+03
3.226442513E+01  1.059994263E+03
3.227460426E+01  1.065757446E+03
3.228478339E+01  1.068883301E+03
3.229496252E+01  1.074628052E+03
3.230514165E+01  1.081601807E+03
3.231532078E+01  1.085173706E+03
3.232549991E+01  1.085935913E+03
3.233567905E+01  1.088053345E+03
3.234585818E+01  1.090729980E+03
3.235603731E+01  1.091059692E+03
3.236621644E+01  1.092693604E+03
3.237639557E+01  1.095042480E+03
3.238657470E+01  1.096552368E+03
3.239675383E+01  1.096322510E+03
3.240693296E+01  1.098139771E+03
3.241711209E+01  1.100945190E+03
3.242729122E+01  1.102929810E+03
3.243747035E+01  1.103969604E+03
3.244764948E+01  1.102974731E+03
3.245782861E+01  1.106796997E+03
3.246800774E+01  1.111066040E+03
3.247818687E+01  1.109129883E+03
3.248836600E+01  1.107217163E+03
3.249854514E+01  1.106964966E+03
3.250872427E+01  1.104371704E+03
3.251890340E+01  1.098807495E+03
3.252908253E+01  1.096475952E+03
3.253926166E+01  1.093379150E+03
3.254944079E+01  1.092270264E+03
3.255961992E+01  1.095014771E+03
3.256979905E+01  1.095401489E+03
3.257997818E+01  1.093478516E+03
3.259015731E+01  1.093694702E+03
3.260033644E+01  1.095944092E+03
3.261051557E+01  1.095284912E+03
3.262069470E+01  1.093805054E+03
3.263087383E+01  1.094915771E+03
3.264105296E+01  1.095807983E+03
3.265123209E+01  1.095068359E+03
3.266141123E+01  1.091428955E+03
3.267159036E+01  1.087625977E+03
3.268176949E+01  1.087508911E+03
3.269194862E+01  1.085847290E+03
3.270212775E+01  1.085142578E+03
3.271230688E+01  1.082183472E+03
3.272248601E+01  1.077282715E+03
3.273266514E+01  1.077200073E+03
3.274284427E+01  1.074869507E+03
3.275302340E+01  1.070397095E+03
3.276320253E+01  1.066726685E+03
3.277338166E+01  1.066084595E+03
3.278356079E+01  1.060646973E+03
3.279373992E+01  1.053496460E+03
3.280391905E+01  1.052273315E+03
3.281409818E+01  1.051685059E+03
3.282427732E+01  1.047715576E+03
3.283445645E+01  1.048797241E+03
3.284463558E+01  1.044034668E+03
3.285481471E+01  1.033353027E+03
3.286499384E+01  1.027658691E+03
3.287517297E+01  1.026480469E+03
3.288535210E+01  1.024602539E+03
3.289553123E+01  1.019981445E+03
3.290571036E+01  1.017273499E+03
3.291588949E+01  1.016198547E+03
3.292606862E+01  1.010121277E+03
3.293624775E+01  1.004113098E+03
3.294642688E+01  9.971047974E+02
3.295660601E+01  9.876990356E+02
3.296678514E+01  9.809343262E+02
3.297696427E+01  9.752858887E+02
3.298714341E+01  9.732107544E+02
3.299732254E+01  9.714240112E+02
3.300750167E+01  9.648211060E+02
3.301768080E+01  9.574186401E+02
3.302785993E+01  9.517282104E+02
3.303803906E+01  9.465565186E+02
3.304821819E+01  9.395748291E+02
3.305839732E+01  9.325653687E+02
3.306857645E+01  9.248328247E+02
3.307875558E+01  9.214031372E+02
3.308893471E+01  9.187021484E+02
3.309911384E+01  9.102215576E+02
3.310929297E+01  9.024678345E+02
3.311947210E+01  8.933690796E+02
3.312965123E+01  8.853143311E+02
3.313983036E+01  8.783955688E+02
3.315000950E+01  8.664125977E+02
3.316018863E+01  8.580181274E+02
3.317036776E+01  8.503781128E+02
3.318054689E+01  8.455989380E+02
3.319072602E+01  8.422145996E+02
3.320090515E+01  8.369935303E+02
3.321108428E+01  8.269138794E+02
3.322126341E+01  8.157532959E+02
3.323144254E+01  8.067584839E+02
3.324162167E+01  8.063418579E+02
3.325180080E+01  8.049037476E+02
3.326197993E+01  7.987866211E+02
3.327215906E+01  7.985998535E+02
3.328233819E+01  7.994555664E+02
3.329251732E+01  7.965250854E+02
3.330269645E+01  7.981045532E+02
3.331287558E+01  8.030524902E+02
3.332305472E+01  8.054224243E+02
3.333323385E+01  8.042135620E+02
3.334341298E+01  8.028588867E+02
3.335359211E+01  8.035806885E+02
3.336377124E+01  7.999975586E+02
3.337395037E+01  7.981558228E+02
3.338412950E+01  8.030901489E+02
3.339430863E+01  7.968638306E+02
3.340448776E+01  7.901422119E+02
3.341466689E+01  7.865953979E+02
3.342484602E+01  7.729598999E+02
3.343502515E+01  7.642550049E+02
3.344520428E+01  7.668071289E+02
3.345538341E+01  7.708658447E+02
3.346556254E+01  7.842680054E+02
3.347574167E+01  7.912217407E+02
3.348592081E+01  7.892517090E+02
3.349609994E+01  7.819462891E+02
3.350627907E+01  7.740705566E+02
3.351645820E+01  7.696832275E+02
3.352663733E+01  7.804141846E+02
3.353681646E+01  7.843024902E+02
3.354699559E+01  7.828582153E+02
3.355717472E+01  7.773253784E+02
3.356735385E+01  7.571753540E+02
3.357753298E+01  7.514779053E+02
3.358771211E+01  7.538270874E+02
3.359789124E+01  7.587009277E+02
3.360807037E+01  7.376473999E+02
3.361824950E+01  7.198931885E+02
3.362842863E+01  7.126343384E+02
