E,DOS,dDOS,Velocity,dVelocity
0.24770599999999998,0.00252447,0.00576356,4821.194262891354,3669.0539163087988
0.49541199999999996,0.0103558,0.0173668,4780.831985758176,2672.5053555653813
0.7431180000000001,0.024471700000000002,0.026349200000000003,4703.316004489032,1688.055437249758
0.9908239999999999,0.0459229,0.0331302,4619.286808064875,1110.8349991071668
1.23853,0.0756324,0.0412184,4538.950132724257,824.5545322838165
1.48624,0.116888,0.046400300000000005,4433.257995530486,586.6192924909767
1.73394,0.173441,0.0535362,4307.505151806286,443.2068788500781
1.98165,0.240157,0.0645979,4224.479782839911,378.7766987639331
2.22935,0.309068,0.075431,4201.017673903599,341.77393946414617
2.47706,0.380412,0.07734060000000001,4205.264332886007,284.99654335694987
2.72477,0.45223599999999997,0.0798075,4230.1120738660275,248.84451136889953
2.97247,0.506025,0.08575930000000001,4317.920882598114,243.94006860249655
3.22018,0.522913,0.10042899999999999,4505.026024930324,288.4175493619238
3.46788,0.535216,0.10336500000000001,4696.633767977265,302.36089335235425
3.71559,0.611561,0.12261199999999998,4703.9093932636,314.3731948735331
3.9633,0.7311880000000001,0.14586,4626.81318644457,307.66821581468673
4.211,0.805663,0.144759,4664.366914396262,279.37131448787693
4.45871,0.852518,0.149653,4755.088999517879,278.2520273708797
4.70641,0.955183,0.182315,4746.2578544898215,301.9826722131824
4.95412,1.1427399999999999,0.21192600000000003,4626.460831611023,286.0102085883279
5.20183,1.3825,0.236673,4485.416141210906,255.967670791787
5.44953,1.56382,0.292919,4440.488970647386,277.2599061705972
5.69724,1.60202,0.295523,4537.403310245111,279.01448694026885
5.94494,1.55156,0.239952,4718.049327950551,243.23249481154733
6.19265,1.5533299999999999,0.262287,4846.372573186286,272.79046876794393
6.44036,1.6692,0.32807,4856.883155544514,318.20702098976835
6.688060000000001,1.85258,0.340517,4810.5507595743475,294.74929159350876
6.93577,2.06397,0.33100999999999997,4754.253628890721,254.1684706453624
7.18347,2.25335,0.34834299999999996,4726.434626398963,243.56530657106612
7.43118,2.42881,0.43389700000000003,4715.137459324216,280.79193124763503
7.678889999999999,2.57226,0.45592,4728.038754872374,279.3523057449477
7.926589999999999,2.58058,0.43618900000000005,4823.980081448267,271.80798061401197
8.1743,2.67519,0.531369,4865.220437310025,322.13487579913385
8.422,3.10636,0.575638,4721.861538241528,291.68008531865013
8.66971,3.57286,0.555009,4594.639046344967,237.9241498753922
8.91742,3.87037,0.6177779999999999,4558.573951912679,242.5553013342758
9.16512,4.13891,0.7031350000000001,4539.943635546278,257.1001344056576
9.41283,4.35654,0.727001,4543.110077821394,252.7239564722156
9.66053,4.45596,0.752648,4587.829039643957,258.3195047736667
9.90824,4.45553,0.754741,4666.073468493851,263.481040829535
10.1559,4.41169,0.759795,4759.1672377298955,273.2253363992695
10.4037,4.4434,0.7965810000000001,4824.738299952578,288.3270087835932
10.6514,4.476430000000001,0.696318,4888.934460360269,253.508820056475
10.8991,4.467219999999999,0.703842,4967.848343817527,260.9207313844253
11.1468,4.83408,0.8524719999999999,4911.896567679502,288.7441186732769
11.3945,5.6248,0.9059879999999999,4738.943218705664,254.44754450060825
11.6422,6.23038,0.9724709999999999,4646.281767450448,241.7522559435867
11.8899,6.42632,0.9734649999999999,4663.56860933034,235.49447453727336
12.1376,6.6847,1.0911899999999999,4666.396006413371,253.92230327469443
12.3853,7.48601,1.15088,4554.505571570287,233.41270343322248
12.633,8.68135,1.3338700000000001,4392.673530277577,224.98771571448978
12.8807,9.371139999999999,1.43753,4337.929801534112,221.8251230645467
13.1284,9.13092,1.25889,4431.560737267193,203.67588636607928
13.3761,8.788960000000001,1.36191,4544.584611006979,234.75147814610781
13.6238,8.771469999999999,1.34675,4603.573312782598,235.62064549218957
13.8715,8.5751,1.32954,4694.5024630931275,242.63585525520557
14.1192,8.23899,1.43885,4813.95936142278,280.2476505903551
14.3669,8.42797,1.3347200000000001,4833.422252052612,255.16676197901683
14.6147,9.376619999999999,1.5577299999999998,4718.0751000852315,261.2827615019504
14.8624,10.7611,1.65383,4557.158070361921,233.4704492365693
15.1101,11.8033,1.80076,4467.83811483053,227.22379725669614
15.3578,12.1299,1.7996900000000002,4475.627666285911,221.36037200881836
15.6055,12.3693,1.77053,4494.248711916893,214.44834501721468
15.8532,12.994,1.7640099999999999,4467.700205995542,202.18681803704936
16.1009,13.8559,1.96907,4418.506924262703,209.3195541656462
16.3486,14.7622,2.28178,4370.425304002595,225.19032642186923
16.5963,15.1961,2.01125,4372.036930191835,192.89902415981118
16.844,14.9496,2.0146,4439.567354168754,199.43942502293166
17.0917,14.8727,2.15576,4490.698725412234,216.98575795490368
17.3394,15.5295,2.3105599999999997,4469.139429701823,221.6608403832038
17.5871,16.5494,2.5011200000000002,4416.949384607102,222.525187042828
17.8348,17.4784,2.50877,4377.894475969687,209.4747756276008
18.0825,17.8285,2.46714,4389.223869219764,202.47721414221115
18.3302,17.4964,2.2035400000000003,4457.064520310637,187.12721632764635
18.5779,17.2811,2.48391,4515.726574581125,216.37112442538952
18.8257,17.9381,2.60798,4499.479668480482,218.07036901295936
19.0734,19.4461,2.91387,4418.365011822702,220.700932765307
19.3211,21.9844,3.15252,4277.9599194743105,204.4971549422434
19.5688,24.6294,3.02776,4154.115212173649,170.24085245809016
19.8165,24.9598,3.07268,4170.530346215094,171.15320740457003
20.0642,23.0045,2.88786,4321.129855263009,180.83258572527953
20.3119,21.7351,2.8578900000000003,4439.835068309329,194.60923306558755
20.5596,22.8828,3.27027,4399.740584705834,209.60857038455475
20.8073,25.1994,3.08946,4294.712577019924,175.52715928450021
21.055,27.3232,3.5073800000000004,4213.535542760002,180.30689412281436
21.3027,28.3775,3.5288199999999996,4193.262738995616,173.829787308653
21.5504,28.4252,3.55211,4223.340193312455,175.9362464825007
21.7981,29.4113,3.4702900000000003,4207.537915956503,165.50097006407222
22.0458,31.3738,3.594,4149.048891010448,158.44663865724468
22.2935,33.461,4.09475,4091.2832758010363,166.90371948659038
22.5412,37.1172,4.68734,3981.499242757326,167.6152321875745
22.7889,41.7917,4.93671,3855.1319514582606,151.8125541536598
23.0367,44.3393,4.7783,3807.187376891918,136.77860792225496
23.2844,43.9619,4.96743,3845.37089139704,144.8499368640992
23.5321,43.4791,4.669980000000001,3886.8754682488766,139.17614001048784
23.7798,46.1653,5.40624,3836.665433328972,149.78046934499145
24.0275,50.7975,5.492430000000001,3742.070476183094,134.88484813569087
24.2752,53.1795,5.29131,3710.628530200707,123.08483288094715
24.5229,52.8587,5.39348,3743.3698980720396,127.33580213325662
24.7706,52.4425,5.53227,3778.478077509572,132.8826987840385
25.0183,54.7212,6.0788199999999994,3750.0783772933173,138.8770182036153
25.266,59.0365,5.9394800000000005,3680.4801405966023,123.44374968200813
25.5137,62.1383,5.8156099999999995,3641.8008433030614,113.6312888912842
25.7614,65.2384,6.50657,3606.3307791958578,119.90911216032025
26.0091,71.1831,6.652810000000001,3525.4259913638307,109.84640460124095
26.2568,78.2679,6.7765,3437.3228241728566,99.21999911086243
26.5045,82.458,6.964510000000001,3399.2974081775324,95.72118167220982
26.7522,84.2657,7.19694,3395.8075975831784,96.69397821900063
27.0,87.6417,7.64297,3372.2978836845805,98.04677339758908
27.2477,93.884,8.02355,3315.963356332471,94.4808739453052
27.4954,100.21700000000001,8.28594,3264.223699936583,89.9797962790455
27.7431,103.719,7.91018,3246.4164934334417,82.5490446616916
27.9908,106.07700000000001,8.43425,3241.3317456308655,85.9251734328487
28.2385,110.566,9.22158,3215.690440930897,89.41722669918668
28.4862,116.11399999999999,9.46438,3182.1098571893745,86.47487515997338
28.7339,116.446,8.60645,3197.485207305538,78.7942146770633
28.9816,111.022,8.77459,3267.3744456178515,86.09729569408222
29.2293,109.499,9.285169999999999,3301.129617540588,93.3260214287664
29.477,114.169,9.44617,3273.857761642019,90.30919084885954
29.7247,117.264,9.139660000000001,3262.950135058809,84.79129088584034
29.9724,115.206,9.04214,3300.4741237160183,86.36675356807946
30.2201,110.314,8.84571,3366.9815672487557,90.01459607947845
30.4678,108.061,9.02174,3408.7207283674275,94.88024500967883
30.7155,110.96799999999999,9.27004,3396.978709033909,94.61056231147579
30.9632,113.90299999999999,9.70985,3385.6276223569853,96.22239351174954
31.211,111.11,9.64456,3431.9511022896772,99.3178021243506
31.4587,104.21700000000001,9.124789999999999,3524.5310724525343,102.88239243173997
31.7064,98.1259,8.74261,3614.8511873513203,107.37437501544413
31.9541,94.2891,8.31122,3682.2865483235682,108.21195574812343
32.2018,94.5048,9.63598,3698.473358655563,125.71867294766348
32.4495,95.7417,8.83409,3701.3371503395438,113.85893036559749
32.6972,93.4886,8.438180000000001,3749.7977314901923,112.83630321966181
32.9449,92.3026,8.90442,3784.7846106798424,121.72359246442569
33.1926,92.728,8.82893,3797.9062096982575,120.55493245661789
33.4403,89.5796,9.0851,3860.9788436495523,130.54309147252005
33.688,85.372,8.66509,3942.7449601598646,133.41114057740813
33.9357,82.5874,8.39936,4006.0862458739275,135.82767191941446
34.1834,80.386,8.77977,4061.9731650815625,147.89986569610718
34.4311,78.5918,8.56637,4112.398620896435,149.43179315516494
34.6788,76.7753,8.40527,4164.433053847832,151.9895777082474
34.9265,78.0083,8.74903,4162.0771384555765,155.616155592015
35.1742,83.1162,9.163969999999999,4094.2523865791195,150.4872407511087
35.422,86.6919,9.708839999999999,4056.108498419229,151.43420679729678
35.6697,85.7307,9.893839999999999,4090.1684973913852,157.35936075898226
35.9174,80.6084,8.74816,4194.338840584415,151.74995453291285
36.1651,75.1619,8.720310000000001,4313.014138077189,166.81590657767813
36.4128,74.562,8.713610000000001,4344.27410095153,169.24644874078365
36.6605,76.6846,8.428989999999999,4323.311770400504,158.4204795265857
36.9082,79.3914,8.98794,4292.837426082891,162.01519352191866
37.1559,81.7719,8.67233,4269.767024697935,150.96173501867614
37.4036,81.4228,8.46275,4294.8428408355185,148.8147230373572
37.6513,80.2736,8.75887,4334.271266527006,157.6592788393817
37.899,81.9365,9.32267,4323.608705113264,163.99606455300693
38.1467,86.4678,9.841280000000001,4265.207829114698,161.8309149623648
38.3944,89.6445,10.4201,4232.442420828074,164.00667992424255
38.6421,86.3299,9.25615,4304.34512112237,153.85304555277048
38.8898,79.8795,9.508469999999999,4436.076688953576,176.03319406969533
39.1375,79.8256,9.73382,4455.895612391626,181.13167240331774
39.3853,83.536,9.94833,4407.428052251583,174.97738474239623
39.633,81.2747,9.38917,4466.560196154477,172.01558587726703
39.8807,74.883,8.83278,4609.294475899862,181.24649543554017
40.1284,72.0151,9.22224,4689.0017136809065,200.1740726098109
40.3761,74.2034,9.62872,4661.531909426544,201.6448163719064
40.6238,77.9783,9.939219999999999,4603.79659658294,195.61834806998942
40.8715,78.8958,10.332,4604.50315269793,201.01399794282298
41.1192,75.9243,10.1459,4682.6301503158875,208.5985540759083
41.3669,73.2784,9.385639999999999,4757.334364967412,203.12630092825145
41.6146,73.9433,8.51928,4761.947010074582,182.89912996851226
41.8623,77.2705,9.41648,4711.195948828193,191.3922516323644
42.11,81.4844,10.0612,4646.7826075940875,191.26916329744682
42.3577,83.931,9.398589999999999,4619.2109827196355,172.43829392606926
42.6054,83.8582,10.2499,4638.543184575835,189.00521112153618
42.8531,81.5207,10.2249,4700.591898258508,196.54401271419047
43.1008,79.4722,9.84218,4758.888109781295,196.471076283774
43.3485,77.2715,10.973,4822.0305032176975,228.26739285099362
43.5963,71.7878,9.61868,4960.626836782729,221.57097661594005
43.844,67.714,9.253589999999999,5077.31733500904,231.30035895667376
44.0917,66.8772,9.14921,5117.590758925066,233.3894463882682
44.3394,66.8945,8.31966,5136.296533438827,212.9521330995049
44.5871,68.291,9.3223,5120.024175740876,232.99247647640095
44.8348,67.5712,9.48943,5157.152400307206,241.43320768989733
45.0825,63.4287,9.5451,5286.445293953508,265.1936445231584
45.3302,60.5416,9.042689999999999,5388.8257854447975,268.3137818064358
45.5779,61.5582,10.0645,5378.501015171406,293.1354066766335
45.8256,66.3035,10.2369,5265.993354913913,271.02896901460986
46.0733,70.6679,9.36364,5173.834146464554,228.5321178694761
46.321,69.8082,9.94073,5213.589371776077,247.48927783868407
46.5687,63.8057,10.3705,5391.338521699018,292.10420780038083
46.8164,58.1221,8.41018,5581.341496991741,269.22129185637664
47.0641,58.3227,9.1073,5594.582080833643,291.2208862207747
47.3118,64.2743,10.0185,5435.266969101571,282.4159121936677
47.5595,69.6448,9.82328,5310.258219404967,249.68459804128648
47.8073,68.1339,9.47429,5367.788718237732,248.8215423159403
48.055,64.9831,9.17357,5471.9980106565845,257.50882684150497
48.3027,68.9878,10.3388,5382.415138642421,268.8932762103777
48.5504,74.7456,10.2706,5258.400763435519,240.86502217328373
48.7981,74.7515,10.6946,5276.132045294181,251.63308812932968
49.0458,72.9329,11.2933,5337.61287987398,275.51656272354506
49.2935,75.9999,10.1535,5282.535792333341,235.26475614457456
49.5412,85.4178,11.0873,5097.789584793889,220.5834625422073
49.7889,94.3207,12.5191,4948.493841236975,218.95316742635228
50.0366,99.6183,11.4622,4875.2755901453775,187.0041142698163
50.2843,108.962,13.3662,4747.339257815318,194.1337118792141
50.532,122.65799999999999,14.5138,4578.6001363372325,180.60870997134677
50.7797,131.627,15.2187,4486.7524750287075,172.9367890748695
51.0274,128.265,14.3435,4540.321328551685,169.26193509977665
51.2751,115.57700000000001,13.5475,4715.932240637315,184.27941153267625
51.5228,106.06,13.0158,4868.585280837891,199.17727791621735
51.7705,105.719,13.2887,4889.422601030263,204.88160468661926
52.0183,110.15100000000001,13.4063,4838.324287569688,196.3061393196616
52.266,111.699,13.4947,4831.145298987098,194.57321625782265
52.5137,108.16,13.9111,4898.68903026589,210.03367801353292
52.7614,104.486,13.2653,4971.016342814814,210.38722727562225
53.0091,103.75,13.504,4998.326292345113,216.87643343253916
53.2568,102.30799999999999,14.055,5037.331496257687,230.6915418654166
53.5045,96.3784,12.832,5154.509219856928,228.77778864198842
53.7522,86.2318,11.8097,5365.728536444674,244.96847001188675
53.9999,76.5773,11.7201,5599.496429331273,285.6827874529642
54.2476,68.907,10.8944,5817.721448348232,306.6162407341272
54.4953,58.8157,9.18464,6151.702057673458,320.2336808035812
54.743,48.0215,8.667760000000001,6601.776846380381,397.2178726424817
54.9907,41.0601,8.28382,6976.53615651267,469.18453076846754
55.2384,38.2604,8.221110000000001,7164.148453280834,513.1413405362207
55.4861,35.3452,8.26705,7377.904067144936,575.231437776614
55.7338,27.9213,7.40313,8004.8692591291365,707.491276690409
55.9816,22.4101,6.17402,8639.115718033523,793.3777513615363
56.2293,25.6811,8.55883,8279.884187279738,919.8331928295615
56.477,29.6357,8.52004,7917.043561716756,758.7091726708503
56.7247,24.7,7.38302,8437.28732586889,840.6694279729669
56.9724,13.7963,5.3596,10274.857755643108,1330.5408321088564
57.2201,6.3352699999999995,6.08143,13356.655265445354,4273.8343341390955
57.4678,7.24384,6.4766,12809.940610765638,3817.726593218299
57.7155,9.974789999999999,5.73,11547.307722397532,2211.119051187238
57.9632,7.69186,4.1879800000000005,12628.297282479063,2291.9162980768842
58.2109,3.8149699999999998,4.2367300000000006,15999.000495072445,5922.590893732197
58.4586,2.0655,4.30895,19685.39916075953,13688.92553710557
58.7063,3.49425,4.6978800000000005,16567.570729261643,7424.818625871617
58.954,7.078310000000001,6.82562,13130.643490150873,4220.636152656086
59.2017,9.95099,6.90724,11754.054683492597,2719.6056109215574
59.4494,11.5895,6.69928,11202.89938437056,2158.6109196106404
59.6971,11.0412,6.106380000000001,11416.958317304983,2104.7408611938854
59.9448,8.70032,5.70143,12394.89788347349,2707.519774933159
60.1926,7.209689999999999,6.1315,13232.550386851946,3751.226220570174
60.4403,6.932360000000001,6.14778,13443.459914633226,3973.9990523818115
60.688,7.733230000000001,6.114240000000001,12997.7623704907,3425.54623116479
60.9357,9.82568,6.26222,12033.187462152142,2556.386877699587
61.1834,10.5172,5.79465,11795.310530565665,2166.2927037916347
61.4311,7.83938,6.28236,13044.235792514217,3484.491454703118
61.6788,4.05495,6.0908,16293.552870403651,8157.998771046137
61.9265,3.68965,5.3560300000000005,16859.433768595558,8157.9274493083685
62.1742,7.027089999999999,7.69689,13637.517373737786,4979.139753166129
62.4219,8.01159,5.93731,13088.96888683277,3233.376369101179
62.6696,3.7271,3.49264,16936.92710279704,5290.501126018079
62.9173,0.49303,4.55261,33328.00269323695,102582.94001682074
63.165,1.60968,4.80963,22524.656109353364,22434.12317670758
63.4127,4.33884,5.05865,16227.313874208905,6306.476927452812
63.6604,6.13743,5.62213,14493.426630917926,4425.525563586908
63.9081,5.33121,4.83462,15229.384759303264,4603.608393381361
64.1558,2.8193200000000003,5.24642,18881.19644284251,11711.893335342373
64.4036,1.9105900000000002,5.3387400000000005,21551.191242631347,20073.420021507092
64.6513,3.85695,6.27185,17095.84309752744,9266.615538823118
64.899,5.7634,5.269419999999999,14991.765055034488,4568.94856680033
65.1467,5.6316,5.3562199999999995,15146.235290213835,4801.873343035966
65.3944,3.26353,4.378819999999999,18213.141209199977,8145.793761324453
65.6421,0.115999,4.01886,55533.7815271778,641334.5329986884
65.8898,0.685212,4.80767,30798.116520360873,72029.86565806124
66.1375,4.28132,7.37794,16763.30465970157,9629.328676067935
66.3852,4.68764,3.97854,16304.836433159498,4612.809133108904
66.6329,1.72397,4.35961,22814.078255704622,19230.904008883503
66.8806,0.32450100000000004,4.99685,39906.941599760314,204836.55650868543
67.1283,0.912065,3.5402099999999996,28347.549400671334,36677.31535149962
67.376,1.15802,4.41921,26243.30216455204,33383.03717720312
67.6237,0.767827,5.12349,30169.296128113478,67103.69728145341
67.8714,-1.0484,4.337269999999999,-27260.62984890104,37592.75129528875
68.1191,-3.24255,3.3189300000000004,-18755.877688369423,6399.235740067809
68.3668,-2.33973,4.799919999999999,-20961.80156670356,14334.275454857161
68.6146,1.46118,5.4284099999999995,24582.73139223204,30442.32697812046
68.8623,4.3235,6.4225,17164.4363485105,8499.18353619145
69.11,2.97923,6.41195,19479.58062314723,13974.76679865326
69.3577,-0.385594,6.03296,-38601.725460757465,201319.40756616488
69.6054,-1.37453,4.06046,-25329.749777834135,24941.96846269022
69.8531,-0.0831404,5.531219999999999,-64680.51034446237,1434369.3821410812
70.1008,-2.36599,4.7846,-21235.607981178895,14314.504509101904
70.3485,-3.6252800000000005,3.09735,-18463.317059513905,5258.210962833946
70.5962,-3.4883900000000003,3.56546,-18745.609128300388,6386.595354496194
70.8439,-0.802381,5.62846,-30666.32827585717,71705.00746931
71.0916,0.122023,3.65995,57586.22961901531,575745.8878276092
71.3393,-1.1814,4.14837,-27081.575427161373,31698.10038529866
71.587,-1.66205,4.84981,-24224.88729567803,23562.491968547005
71.8347,-3.22214,4.08239,-19472.800046050084,8223.895837327067
72.0824,-4.8638900000000005,2.6972400000000003,-17014.215484126784,3145.056359542292
72.3301,-2.10522,4.28871,-22544.151770247292,15308.82926995154
72.5779,3.13001,6.36027,19797.394708333686,13409.628820212412
72.8256,4.12668,4.85813,18095.731129276013,7101.067534107561
73.0733,1.5205799999999998,4.4661800000000005,25298.206930604865,24768.260258977665
73.321,0.24548699999999998,4.96556,46565.37503106047,313965.2532911333
73.5687,0.5775899999999999,5.81004,35089.39262920068,117655.99443553334
73.8164,0.168665,5.77851,53008.71404544808,605364.4493560824
74.0641,-1.95491,4.46391,-23475.59429232231,17868.336192221766
74.3118,-1.97812,6.3,-23435.523594356226,24879.48461894282
74.5595,1.4166100000000001,5.89394,26252.59518544863,36408.805284930495
74.8072,2.5916799999999998,5.50852,21512.398068456652,15241.273422023916
75.0549,0.881022,6.3781099999999995,30891.865424181462,74546.65183101212
75.3026,0.6981609999999999,5.198919999999999,33456.086440471336,83044.60869916849
75.5503,1.7245400000000002,5.52243,24803.9048298432,26476.20935185184
75.798,0.44683199999999995,4.661980000000001,38992.17191993188,135607.0647784269
