E,DOS,dDOS,Velocity,dVelocity
0.248319,0.00223914,0.00549045,5105.922498154312,4173.304620202645
0.496638,0.00897278,0.0164996,5102.844001627019,3127.794397369042
0.744957,0.020437,0.025240099999999998,5082.098630811834,2092.1723348628784
0.993276,0.03818,0.0292384,4998.764237034045,1276.0376381900032
1.2416,0.0643302,0.0329904,4874.658201699114,833.3077473835449
1.48991,0.0990131,0.0391629,4767.643842189991,628.6099513395062
1.73823,0.137561,0.0426077,4735.157039286961,488.9144032750067
1.98655,0.174677,0.0481774,4779.866416863671,439.4769529703397
2.23487,0.215435,0.05657,4821.225270534718,422.0302292963048
2.48319,0.263439,0.06551169999999999,4836.61232397942,400.95958880294893
2.7315099999999997,0.308193,0.0681957,4891.277175860918,360.81784495829015
2.9798299999999998,0.34821799999999997,0.078432,4976.6670594887755,373.68901654700414
3.22815,0.408008,0.09267719999999999,4979.368247971949,377.0572475144792
3.4764699999999995,0.48265699999999995,0.09540989999999999,4946.607539001309,325.99215520634516
3.72479,0.525903,0.0925567,5033.390747746994,295.34186475116906
3.9731,0.553994,0.12072999999999999,5164.3140488474855,375.19404038473
4.221419999999999,0.652069,0.16456400000000002,5092.947410757517,428.4792396816167
4.46974,0.790968,0.163487,4960.9311964322405,341.8430351339893
4.7180599999999995,0.8765620000000001,0.158194,4969.844044347495,299.02548020334126
4.96638,0.980577,0.200213,4954.053939331366,337.21898795632427
5.2147,1.1805,0.21827,4810.8914301682835,296.55682959760355
5.463019999999999,1.38179,0.22453800000000002,4708.71616569325,255.10965667965473
5.71134,1.5113,0.244827,4707.638614559304,254.26637487991962
5.9596599999999995,1.62411,0.27218200000000004,4728.287146879901,264.1913127197476
6.20798,1.7439099999999998,0.294775,4744.824834737199,267.39663033358454
6.45629,1.8917099999999998,0.32172,4740.220024611704,268.77574079902956
6.704610000000001,2.0550599999999997,0.397798,4728.631950690863,305.15556797825303
6.95293,2.23461,0.38066700000000003,4711.2844503840315,267.57811420288056
7.20125,2.38593,0.381931,4718.609382893804,251.83773331829696
7.44957,2.42611,0.425863,4799.676591565335,280.88851930854565
7.697889999999999,2.3970700000000003,0.420414,4925.483809253357,288.01034124175135
7.946210000000001,2.5272,0.427112,4942.972056411315,278.5220022321406
8.19453,2.98285,0.46123100000000006,4774.19582874681,246.1354086837536
8.44285,3.5028699999999997,0.573753,4616.144300939089,252.0898522895193
8.69117,3.7396800000000003,0.572612,4604.707166828824,235.08068745922054
8.93948,3.8301800000000004,0.5745560000000001,4654.750894803108,232.8108259503259
9.1878,4.19545,0.651986,4598.782176291746,238.28037562569835
9.436119999999999,4.78481,0.685584,4480.59206294802,214.06021332000668
9.684439999999999,5.11259,0.732152,4459.272584975824,212.92615717978623
9.93276,5.06836,0.7327170000000001,4548.331851840529,219.2417729652175
10.1811,4.96085,0.702425,4656.994993165102,219.86557096142496
10.4294,5.09008,0.837824,4692.014521996613,257.49075206905746
10.6777,5.30845,0.8699479999999999,4699.9210961558665,256.7976636390832
10.926,5.39987,0.805325,4745.416799533496,235.97018344106297
11.1744,5.557230000000001,0.9220729999999999,4771.167745512547,263.939387089685
11.4227,6.04933,1.00844,4706.57253110452,261.5888639622401
11.671,6.42709,0.935283,4679.095612544456,227.03421416943786
11.9193,6.26924,0.935348,4784.723759302727,238.01810556773754
12.1676,6.35286,1.2013,4829.566925364109,304.4678069242613
12.416,7.12803,1.24181,4710.777915952163,273.6164036000533
12.6643,7.766210000000001,1.25916,4638.872300699338,250.76171316408403
12.9126,8.05508,1.28173,4642.449412093469,246.2944630625735
13.1609,8.554780000000001,1.4156,4608.3852557565415,254.24567885928536
13.4092,9.17706,1.42381,4558.221122731537,235.79246564371394
13.6575,9.7977,1.36172,4514.754030682814,209.22339680222404
13.9059,10.6433,1.5352299999999999,4444.967953134972,213.78079196310716
14.1542,11.2538,1.7095200000000002,4414.87578009961,223.60637363593176
14.4025,11.2147,1.73405,4471.542572134723,230.52504910158348
14.6508,10.9877,1.55902,4553.723212890558,215.43615126934864
14.8991,11.1393,1.44478,4584.043434857048,198.25531544914924
15.1475,11.8026,1.56857,4546.3487283529585,201.4716555755437
15.3958,12.5798,1.61884,4499.2307003869955,193.06483585816034
15.6441,13.0981,1.68975,4486.685440572538,193.007296141131
15.8924,13.2415,1.7065599999999999,4517.608557642792,194.14545716999447
16.1407,13.2667,1.65972,4561.649804093186,190.29949819735208
16.3891,13.7606,1.65672,4552.524383922795,182.77675505585177
16.6374,14.0318,1.88058,4568.57239101218,204.16509437096454
16.8857,13.2958,1.8153,4697.526321822893,213.85552581474218
17.134,12.9801,1.74027,4781.613801573845,213.76447935461323
17.3823,14.5331,2.25097,4649.21975200833,240.09214458534726
17.6307,16.8219,2.70427,4470.087478172018,239.5905774935717
17.879,17.9994,2.42168,4411.342799826654,197.90236392444697
18.1273,18.042,2.33415,4448.584620486558,191.91062245208084
18.3756,17.9286,2.35423,4498.560447589424,196.97205956423
18.6239,18.3078,2.4444,4507.437376952048,200.6732408165751
18.8722,19.0129,2.40674,4490.488270904842,189.54586947945552
19.1206,20.3623,2.60281,4427.44730555372,188.71476053419377
19.3689,22.2628,2.99286,4334.823080972559,194.3120230163641
19.6172,23.0397,2.73956,4322.0893493064605,171.37961648055912
19.8655,22.6957,3.0171900000000003,4380.39364590596,194.1767028867514
20.1138,23.0825,3.01579,4392.008153147211,191.3425061572237
20.3622,23.7675,3.13348,4385.138343168849,192.7764957648385
20.6105,23.4834,3.3261800000000004,4438.470734519996,209.61658517209858
20.8588,22.9649,3.33865,4507.468439455952,218.49424291422073
21.1071,23.7768,3.21068,4490.857186904251,202.20564355080725
21.3554,26.5832,3.6894099999999996,4360.778771162454,201.80251336495337
21.6038,30.1522,3.9547199999999996,4213.811439249721,184.2895611447355
21.8521,32.1488,3.7622400000000003,4156.251933187716,162.20003307200727
22.1004,32.3116,3.9807699999999997,4180.63195284748,171.7510816630114
22.3487,32.102,4.14703,4221.033651098029,181.82660528329694
22.597,32.4063,3.80027,4238.888976147915,165.76911104810816
22.8453,32.7129,3.63962,4256.502528833979,157.93459937068693
23.0937,33.2556,3.72568,4263.851636166276,159.30425390596784
23.342,34.9844,3.8254099999999998,4222.424575716364,153.97854512733258
23.5903,38.1422,4.04124,4131.569509003199,145.9932491154473
23.8386,40.3676,4.22158,4082.606491705728,142.39492187315872
24.0869,39.8015,4.09987,4130.30504015129,141.8975546401255
24.3353,40.3233,4.59799,4140.636582453775,157.45500006099843
24.5836,44.3048,5.257,4039.938258131307,159.8542275994773
24.8319,48.4688,5.27376,3947.121957503118,143.23050917925525
25.0802,49.9135,5.30943,3934.6791409078783,139.5873908035489
25.3285,50.8113,5.323919999999999,3937.1401915557667,137.58341348532363
25.5769,53.5908,4.89018,3893.1086504606888,118.50044513498713
25.8252,56.5557,5.10714,3848.56065626926,115.92980529123871
26.0735,59.0868,5.50064,3817.075346162991,118.53051825291303
26.3218,61.9752,5.606669999999999,3780.643657132003,114.08986070690686
26.5701,65.0081,6.4045,3744.2741164167273,123.03543357706242
26.8185,68.7207,6.634110000000001,3698.467427210232,119.08929629868567
27.0668,72.927,6.61291,3648.2939856962353,110.35369121728579
27.3151,76.5961,7.293130000000001,3611.0013002481305,114.68286171103335
27.5634,77.8537,7.0837699999999995,3613.184235900798,109.66446946266119
27.8117,77.7951,6.43671,3635.7633742328258,100.36058511828533
28.06,79.8847,6.7491699999999994,3625.1994800862553,102.17840505283365
28.3084,82.697,6.5320800000000006,3604.7484590547265,95.00122717680347
28.5567,85.0755,7.391089999999999,3591.6872262911334,104.0934317080498
28.805,89.2903,7.92996,3554.7180526510306,105.31202971705942
29.0533,93.3766,7.4215800000000005,3522.186063393331,93.40239658791857
29.3016,92.1247,7.28717,3558.1986906273223,93.90837809413846
29.55,88.2006,7.30037,3630.5783295483493,100.25469908935774
29.7983,88.8926,7.2159699999999996,3641.3893964483814,98.6203995039142
30.0466,93.847,7.76434,3595.9868341892134,99.25631932166591
30.2949,96.9179,8.16122,3577.170861768992,100.49249365845411
30.5432,93.8425,8.11102,3635.5587604550133,104.82658381265537
30.7916,88.1889,7.42017,3731.7413072028667,104.75020875166992
31.0399,87.015,7.21775,3768.57215478047,104.28900490300465
31.2882,95.5865,9.09003,3671.832545219759,116.47049190602951
31.5365,104.67200000000001,9.066230000000001,3581.1855352555904,103.47750109948612
31.7848,103.03,8.68666,3618.981998600863,101.79290178783857
32.0332,93.707,8.34803,3754.662220895513,111.58014674066084
32.2815,88.2,7.629560000000001,3851.006722577654,111.12940303403569
32.5298,90.1993,8.10898,3841.9160764180347,115.21503671524933
32.7781,93.408,8.9391,3816.709977594104,121.83149944411916
33.0264,94.4117,9.29425,3822.3186186928324,125.50488587925668
33.2747,95.2393,8.90279,3830.2933364816918,119.43076860640059
33.5231,95.2452,8.78903,3849.25264126277,118.48305796590317
33.7714,91.0401,8.40892,3926.899638148997,120.9870018517986
34.0197,85.4878,8.1061,4029.770130877048,127.45416661820963
34.268,82.6259,8.73122,4095.577092581045,144.3390561318961
34.5163,81.3964,9.082930000000001,4135.954556536523,153.91561764875746
34.7647,80.1285,8.09492,4177.578831373491,140.76088415440083
35.013,79.1714,7.627789999999999,4214.293468443029,135.42913994680416
35.2613,79.0645,8.30897,4236.101630393553,148.47202168446196
35.5096,80.2923,9.436169999999999,4234.159573868015,165.94143163556436
35.7579,81.1889,9.24571,4238.157759257313,160.95283663281083
36.0063,81.6968,8.42427,4248.920930459832,146.12600376622092
36.2546,82.6608,9.45513,4251.774386360294,162.18633568607333
36.5029,80.8267,8.91514,4303.23071008027,158.29200753031697
36.7512,75.2782,7.41511,4426.419885472351,145.42727841096345
36.9995,69.8879,7.2867,4557.827739508267,158.49045911592907
37.2479,70.9605,8.382489999999999,4555.02019620213,179.43639015114246
37.4962,77.144,8.73307,4449.577623592385,167.982430136635
37.7445,81.1961,8.714889999999999,4393.581922235373,157.2709110096051
37.9928,78.6579,8.248660000000001,4459.793524151637,155.98017181491733
38.2411,72.4109,8.115639999999999,4604.476595243368,172.1010244044332
38.4894,70.029,8.713330000000001,4676.232757885563,194.02064645710536
38.7378,72.2402,9.10484,4647.9165564496425,195.34084160176656
38.9861,74.1893,8.93114,4626.516385110799,185.72771002958
39.2344,73.3531,8.49376,4663.727716005383,180.0885412806079
39.4827,72.6993,9.23368,4697.381362755906,198.94786127175917
39.731,74.4949,9.25267,4678.846717793333,193.78739655147186
39.9794,77.7799,8.82665,4631.230414094557,175.26863909633747
40.2277,82.8789,9.82742,4552.991188307172,180.0341103463281
40.476,86.2522,9.46552,4511.313400123088,165.10890265260394
40.7243,83.3345,9.56676,4582.004114093455,175.41642126646576
40.9726,77.6902,10.0009,4709.429177760181,202.15092851422034
41.221,74.0639,9.942689999999999,4804.388926421935,215.0589691353258
41.4693,72.5742,9.4485,4856.443994529764,210.82889745982646
41.7176,70.7504,8.653960000000001,4917.351400695657,200.57121988915955
41.9659,68.7079,8.89966,4985.286670646209,215.32258300416194
42.2142,68.1378,9.304960000000001,5018.851440591838,228.53251825107736
42.4626,70.0778,9.611880000000001,4991.589963036134,228.28787088351828
42.7109,73.5058,9.05905,4931.8888445835555,202.68571065074488
42.9592,75.3976,9.40147,4909.225147745026,204.12493916564165
43.2075,73.6523,9.08906,4966.746434623585,204.38687464192225
43.4558,69.6376,8.69843,5079.783877834202,211.58584453761983
43.7041,70.1088,9.313039999999999,5087.666208075555,225.35265480386832
43.9525,74.6176,10.1284,5001.918721591321,226.38890829496472
44.2008,73.9385,9.25083,5036.063630053641,210.10917949248855
44.4491,68.0364,8.08543,5197.041762374662,205.95845986041053
44.6974,67.4237,9.32297,5232.131466478979,241.23160352262732
44.9457,71.6399,9.97091,5146.379118343257,238.8326505006084
45.1941,71.8859,9.13021,5159.424450418669,218.51294949003787
45.4424,68.0587,8.1979,5273.605327981382,211.8279968994119
45.6907,66.6401,8.64737,5330.0914676250695,230.62968950886844
45.939,68.6334,8.768239999999999,5297.087997454039,225.65819537359036
46.1873,68.2574,8.82629,5325.9015850330825,229.64384838654018
46.4357,64.9275,8.7891,5434.835935182133,245.31374123935896
46.684,64.704,9.368039999999999,5460.465462094471,263.6023339810346
46.9323,68.9404,10.3168,5365.184071193953,267.7009661304771
47.1806,72.1597,10.8563,5302.801870526293,266.0023012781604
47.4289,73.5071,11.6931,5288.675726758472,280.49695446476557
47.6773,78.0407,10.9093,5202.29989317914,242.4834210502136
47.9256,82.5048,11.0084,5124.442620554675,227.98982325860348
48.1739,79.3213,10.1412,5210.018485440667,222.11381010258341
48.4222,68.0178,9.30438,5502.796916829105,250.99503734043725
48.6705,61.1534,10.405,5720.908521495943,324.5297126041938
48.9188,63.1332,9.76047,5679.706968917686,292.7694024522175
49.1672,64.386,9.67326,5661.712819036446,283.6105925472749
49.4155,64.7056,10.4758,5671.389923416424,306.13440635925855
49.6638,65.9687,11.0381,5653.820155009758,315.4056064784296
49.9121,67.7992,10.8856,5621.130993703898,300.9057379630491
50.1604,69.7071,10.8456,5587.827487545038,289.8711671397647
50.4088,71.2029,12.478,5566.723871702793,325.24441390535804
50.6571,71.5039,11.7377,5577.141200837644,305.2386555494333
50.9054,73.1362,10.2487,5553.410449764812,259.481533734661
51.1537,75.9419,10.3362,5501.978420126724,249.69883447665578
51.402,75.1945,11.2419,5537.996203262266,276.0581778456269
51.6504,73.6617,10.2656,5594.095562947283,259.9466550196442
51.8987,77.6251,11.5121,5514.82322839527,272.69688468172467
52.147,82.9816,12.2229,5410.7020379031255,265.73201689962485
52.3953,81.2676,11.5904,5465.758139792783,259.91847187494943
52.6436,74.9624,10.8288,5632.621393094166,271.30009641738354
52.892,72.2663,10.531,5719.736918847612,277.9138811512886
53.1403,78.6591,12.0247,5577.77525152337,284.2991597373634
53.3886,90.6102,12.6929,5337.4603211229705,249.30375249873345
53.6369,96.541,13.0378,5242.03419173969,236.05475290177247
53.8852,90.2909,12.8839,5376.830420585361,255.8204848623795
54.1335,82.1444,11.579,5566.03694969951,261.60613945610004
54.3819,83.6257,11.4977,5549.889420126708,254.43153188262937
54.6302,89.6407,13.2204,5439.363900524806,267.4761002099737
54.8785,91.0297,14.8488,5427.9410008981895,295.20193553999127
55.1268,82.6477,13.1383,5622.458591224914,297.9995728912862
55.3751,67.3914,10.4667,6036.282039658718,312.5796228306331
55.6235,59.1561,9.93827,6323.15310435033,354.1728227021355
55.8718,63.0292,11.132,6209.298113762897,365.6246614107064
56.1201,69.289,11.7166,6034.188327457222,340.1929155823507
56.3684,70.4022,11.5404,6019.906265377245,329.0025397669708
56.6167,66.7812,12.4188,6144.779397635195,380.96507483138157
56.8651,60.6448,11.1836,6363.958655648683,391.26420814209774
57.1134,56.3332,11.9614,6541.317108867889,463.0403590919328
57.3617,52.3021,10.3105,6724.649210372482,441.9523641712195
57.61,48.0495,10.532,6937.403578224286,506.9340458162037
57.8583,44.5847,10.6985,7133.070184410219,570.607080558941
58.1066,41.3096,9.42251,7337.723010649171,557.9629177716615
58.355,37.6714,8.48144,7588.270367066354,569.5480199970568
58.6033,33.4353,8.39597,7918.464501719233,662.866922899475
58.8516,31.1453,8.18999,8130.851156832236,712.7594349329702
59.0999,29.7394,8.85019,8280.217867955082,821.429086826949
59.3482,26.3606,8.8753,8643.996946001878,970.1611835685162
59.5966,22.5174,7.505910000000001,9135.5824687089,1015.1339480568269
59.8449,21.6513,7.32443,9281.498638452718,1046.668812930272
60.0932,24.9318,7.271039999999999,8879.605605707591,863.2681151739025
60.3415,26.557,7.763889999999999,8718.579476553292,849.6793579841617
60.5898,22.9336,6.61602,9180.583160325516,882.8860128781463
60.8382,18.5336,7.2512,9883.079974298009,1288.9558242336664
61.0865,18.2429,7.294560000000001,9962.313478800095,1327.8845955580916
61.3348,20.1522,6.33942,9663.293005420162,1013.344383436012
61.5831,19.8424,6.645410000000001,9739.521752818355,1087.3440789304198
61.8314,18.1367,6.94428,10062.702450145134,1284.339843942272
62.0798,18.6329,6.89728,9999.264484120746,1233.8519788129045
62.3281,19.8119,7.27919,9822.948876692933,1203.0860689603066
62.5764,16.2938,6.51061,10512.215536500411,1400.1948806697412
62.8247,10.0005,5.05505,12402.45647658745,2089.778761952298
63.073,10.4692,8.4211,12246.702296434405,3283.6527811131723
63.3213,18.452,9.508510000000001,10165.14084387781,1746.107179405535
63.5697,21.2932,7.2133199999999995,9716.603123850851,1097.2611195046934
63.818,17.7732,6.3364,10346.693508826886,1229.6389635169767
64.0663,17.0921,7.322839999999999,10509.513710898409,1500.9269768208146
64.3146,18.602,7.29926,10243.487363743521,1339.8696705650643
64.5629,16.1904,6.00165,10756.331070018112,1329.1524508925415
64.8113,12.1249,5.49759,11875.058764315148,1794.8215022127176
65.0596,9.658439999999999,7.047439999999999,12843.003411054351,3123.737975305681
65.3079,8.95787,6.99057,13202.927190856122,3434.4804606817224
65.5562,10.2575,6.194380000000001,12651.926877784115,2546.8233469535903
65.8045,13.8263,8.36578,11482.322428267684,2315.8797473466116
66.0529,16.2225,7.74202,10913.984507727353,1736.2406875445854
66.3012,12.9381,6.25059,11798.281632309616,1900.0239888698393
66.5495,6.792889999999999,5.85389,14661.317700443695,4211.581456705714
66.7978,2.68797,5.45059,20019.872214500814,13531.930935536095
67.0461,1.43718,5.41361,24727.106126526825,31047.599031961214
67.2945,0.6889029999999999,7.27416,31673.424582166746,111480.41183050066
67.5428,0.131339,6.25167,55167.43677524867,875314.0356137217
67.7911,0.8653379999999999,4.9409,29499.491480916226,56145.33051762347
68.0394,4.46695,6.16169,17110.575638785762,7867.440683849298
68.2877,8.118269999999999,6.19169,14055.139509362527,3573.255422120681
68.536,7.028289999999999,5.78238,14782.819666470798,4054.121849217623
68.7844,2.4573400000000003,4.9724,21034.53357456086,14187.73507563041
69.0327,0.445057,3.8411699999999995,37267.13688555675,107214.2966142599
69.281,2.47371,4.65025,21088.928010160107,13214.827471372757
69.5293,4.5135,8.41592,17299.574573612936,10752.341848468404
69.7776,3.72305,7.048189999999999,18490.091616699145,11668.022650451281
70.026,4.7484,5.4772300000000005,17090.382454598974,6571.222171970624
70.2743,7.93364,7.876469999999999,14436.708573586744,4777.587941732009
70.5226,5.9224,6.755719999999999,15951.969068637964,6065.532511936974
70.7709,1.5240200000000002,4.94185,25138.20466223841,27171.407856946866
71.0192,0.726491,4.99263,32255.350972514945,73888.9874818037
71.2676,0.08263619999999999,4.73278,66726.64829200327,1273866.8488155052
71.5159,-1.48767,4.6288,-25518.836614121807,26466.81578472773
71.7642,0.362619,4.35117,40946.46185175514,163776.14316760618
72.0125,3.13212,4.53809,20002.631246107205,9660.549202705513
72.2608,1.13362,4.59277,28132.43632290261,37992.112702716026
72.5092,-3.9681800000000003,4.0214300000000005,-18570.615088225386,6273.309282143945
72.7575,-6.85014,4.28487,-15516.009264913448,3235.2182390551097
73.0058,-6.1664699999999995,4.07522,-16105.987931400212,3548.023331238491
73.2541,-4.18371,6.670960000000001,-18370.82955127149,9764.16911443561
73.5024,-2.05093,6.22478,-23351.35402329531,23624.58906970373
73.7507,-0.0496925,4.61775,-80880.12549983257,2505302.2742143343
73.9991,3.41074,5.94509,19798.369308502017,11503.204377374617
74.2474,8.3481,8.22922,14723.790179243157,4838.068962305841
74.4957,9.1882,9.23385,14292.40533483704,4787.833107704631
74.744,6.67922,6.906210000000001,15930.777615500363,5490.756303978212
74.9923,7.21212,6.97,15562.694840901777,5013.443760854041
75.2407,8.740739999999999,6.744089999999999,14628.972325424334,3762.461454576329
75.489,4.11992,4.77463,18838.841315856465,7277.560032237072
75.7373,-4.63517,3.85088,-18152.8989817564,5027.161047774456
75.9856,-9.57995,3.59144,-14282.178327247902,1784.8304003816681
76.2339,-8.56735,4.5320800000000006,-14856.320376237274,2619.6923595107187
76.4823,-6.20822,5.1132599999999995,-16575.994515931186,4550.854249991816
76.7306,-5.74892,4.57094,-17042.95805628362,4516.9685139846815
