# == pyFAI calibration ==
# SplineFile: None
# PixelSize: 7.900e-05, 7.900e-05 m
# PONI: 1.411e-01, 1.028e-01 m
# Distance Sample to Detector: 0.252389920345 m
# Rotations: 0.001947 0.002954 0.000003 rad
# 
# == Fit2d calibration ==
# Distance Sample-beamCenter: 252.392 mm
# Center: x=1295.273, y=1795.185 pix
# Tilt: 0.203 deg  TiltPlanRot: 123.397 deg
# 
# Wavelength: 8.603e-11
# Polarization factor: 0.99
# Normalization factor: None
#
# 2th_deg	 I
3.335335913E+00  7.531634766E+03
3.345515043E+00  7.528060547E+03
3.355694174E+00  7.531644043E+03
3.365873304E+00  7.551999023E+03
3.376052435E+00  7.540104492E+03
3.386231566E+00  7.549583984E+03
3.396410696E+00  7.572790527E+03
3.406589827E+00  7.561225098E+03
3.416768958E+00  7.569392578E+03
3.426948088E+00  7.566368652E+03
3.437127219E+00  7.569403809E+03
3.447306349E+00  7.581549316E+03
3.457485480E+00  7.627725098E+03
3.467664611E+00  7.638152832E+03
3.477843741E+00  7.695746582E+03
3.488022872E+00  7.761693848E+03
3.498202002E+00  7.805057617E+03
3.508381133E+00  7.789685547E+03
3.518560264E+00  7.790616699E+03
3.528739394E+00  7.800773438E+03
3.538918525E+00  7.823225586E+03
3.549097656E+00  7.833248535E+03
3.559276786E+00  7.858784180E+03
3.569455917E+00  7.872714355E+03
3.579635047E+00  7.863827148E+03
3.589814178E+00  7.861672852E+03
3.599993309E+00  7.878433105E+03
3.610172439E+00  7.896708984E+03
3.620351570E+00  7.911250977E+03
3.630530701E+00  7.910097168E+03
3.640709831E+00  7.909992676E+03
3.650888962E+00  7.934161133E+03
3.661068092E+00  7.959760742E+03
3.671247223E+00  7.990593262E+03
3.681426354E+00  8.012090820E+03
3.691605484E+00  8.019087402E+03
3.701784615E+00  8.029626953E+03
3.711963745E+00  8.047537598E+03
3.722142876E+00  8.046757324E+03
3.732322007E+00  8.041184570E+03
3.742501137E+00  8.040308105E+03
3.752680268E+00  8.029283203E+03
3.762859399E+00  8.020332031E+03
3.773038529E+00  8.011254395E+03
3.783217660E+00  8.003797363E+03
3.793396790E+00  8.017170410E+03
3.803575921E+00  8.042104492E+03
3.813755052E+00  8.040845215E+03
3.823934182E+00  8.042908203E+03
3.834113313E+00  8.058919434E+03
3.844292444E+00  8.065273926E+03
3.854471574E+00  8.068875488E+03
3.864650705E+00  8.070553223E+03
3.874829835E+00  8.085248535E+03
3.885008966E+00  8.107299805E+03
3.895188097E+00  8.126261230E+03
3.905367227E+00  8.131084473E+03
3.915546358E+00  8.115179199E+03
3.925725488E+00  8.086872070E+03
3.935904619E+00  8.070084961E+03
3.946083750E+00  8.074916992E+03
3.956262880E+00  8.072853027E+03
3.966442011E+00  8.067056641E+03
3.976621142E+00  8.080170898E+03
3.986800272E+00  8.104638184E+03
3.996979403E+00  8.114695801E+03
4.007158533E+00  8.099870117E+03
4.017337664E+00  8.092655273E+03
4.027516795E+00  8.094865234E+03
4.037695925E+00  8.109503418E+03
4.047875056E+00  8.109087402E+03
4.058054187E+00  8.112496582E+03
4.068233317E+00  8.118179688E+03
4.078412448E+00  8.123327637E+03
4.088591578E+00  8.132203125E+03
4.098770709E+00  8.143513672E+03
4.108949840E+00  8.141771973E+03
4.119128970E+00  8.121980957E+03
4.129308101E+00  8.123594238E+03
4.139487231E+00  8.129383789E+03
4.149666362E+00  8.136340820E+03
4.159845493E+00  8.133533203E+03
4.170024623E+00  8.131907227E+03
4.180203754E+00  8.129867188E+03
4.190382885E+00  8.118428711E+03
4.200562015E+00  8.110604004E+03
4.210741146E+00  8.094097656E+03
4.220920276E+00  8.095193848E+03
4.231099407E+00  8.093100586E+03
4.241278538E+00  8.098711914E+03
4.251457668E+00  8.106643066E+03
4.261636799E+00  8.115471680E+03
4.271815930E+00  8.137552734E+03
4.281995060E+00  8.164294922E+03
4.292174191E+00  8.178214844E+03
4.302353321E+00  8.149729492E+03
4.312532452E+00  8.125071289E+03
4.322711583E+00  8.115166992E+03
4.332890713E+00  8.127508789E+03
4.343069844E+00  8.130015625E+03
4.353248974E+00  8.120879883E+03
4.363428105E+00  8.119829590E+03
4.373607236E+00  8.109888672E+03
4.383786366E+00  8.105135742E+03
4.393965497E+00  8.096680664E+03
4.404144628E+00  8.103640137E+03
4.414323758E+00  8.111667480E+03
4.424502889E+00  8.119819336E+03
4.434682019E+00  8.118334473E+03
4.444861150E+00  8.103694824E+03
4.455040281E+00  8.096306641E+03
4.465219411E+00  8.088170898E+03
4.475398542E+00  8.100274902E+03
4.485577673E+00  8.109643066E+03
4.495756803E+00  8.114009766E+03
4.505935934E+00  8.109413574E+03
4.516115064E+00  8.100362793E+03
4.526294195E+00  8.097575195E+03
4.536473326E+00  8.097635742E+03
4.546652456E+00  8.097333008E+03
4.556831587E+00  8.100546387E+03
4.567010717E+00  8.107464844E+03
4.577189848E+00  8.110746094E+03
4.587368979E+00  8.103001465E+03
4.597548109E+00  8.093952148E+03
4.607727240E+00  8.084995117E+03
4.617906371E+00  8.082310059E+03
4.628085501E+00  8.076686523E+03
4.638264632E+00  8.077104004E+03
4.648443762E+00  8.084159180E+03
4.658622893E+00  8.090818359E+03
4.668802024E+00  8.084734863E+03
4.678981154E+00  8.084284180E+03
4.689160285E+00  8.074815918E+03
4.699339415E+00  8.065804199E+03
4.709518546E+00  8.052902832E+03
4.719697677E+00  8.054452637E+03
4.729876807E+00  8.060168457E+03
4.740055938E+00  8.066777344E+03
4.750235069E+00  8.070761719E+03
4.760414199E+00  8.070393066E+03
4.770593330E+00  8.074811035E+03
4.780772460E+00  8.081062500E+03
4.790951591E+00  8.079497070E+03
4.801130722E+00  8.070253418E+03
4.811309852E+00  8.065721680E+03
4.821488983E+00  8.058532227E+03
4.831668114E+00  8.049999512E+03
4.841847244E+00  8.046327148E+03
4.852026375E+00  8.042874023E+03
4.862205505E+00  8.043952148E+03
4.872384636E+00  8.050901855E+03
4.882563767E+00  8.054914062E+03
4.892742897E+00  8.060400391E+03
4.902922028E+00  8.060150391E+03
4.913101158E+00  8.061943848E+03
4.923280289E+00  8.064210938E+03
4.933459420E+00  8.058085449E+03
4.943638550E+00  8.052358398E+03
4.953817681E+00  8.041085938E+03
4.963996812E+00  8.030844727E+03
4.974175942E+00  8.027823730E+03
4.984355073E+00  8.028291016E+03
4.994534203E+00  8.032131836E+03
5.004713334E+00  8.026854980E+03
5.014892465E+00  8.028280273E+03
5.025071595E+00  8.028091309E+03
5.035250726E+00  8.034638184E+03
5.045429857E+00  8.042666016E+03
5.055608987E+00  8.049491699E+03
5.065788118E+00  8.044013184E+03
5.075967248E+00  8.031551270E+03
5.086146379E+00  8.025378418E+03
5.096325510E+00  8.022982422E+03
5.106504640E+00  8.025618652E+03
5.116683771E+00  8.028508789E+03
5.126862901E+00  8.025927734E+03
5.137042032E+00  8.024654785E+03
5.147221163E+00  8.026047363E+03
5.157400293E+00  8.024497559E+03
5.167579424E+00  8.016397949E+03
5.177758555E+00  8.010435547E+03
5.187937685E+00  8.004040039E+03
5.198116816E+00  7.989572754E+03
5.208295946E+00  7.985127441E+03
5.218475077E+00  7.986316406E+03
5.228654208E+00  7.986195312E+03
5.238833338E+00  7.983322754E+03
5.249012469E+00  7.984457031E+03
5.259191600E+00  7.992172363E+03
5.269370730E+00  7.991192871E+03
5.279549861E+00  7.986518555E+03
5.289728991E+00  7.984656250E+03
5.299908122E+00  7.982770996E+03
5.310087253E+00  7.978734375E+03
5.320266383E+00  7.972563477E+03
5.330445514E+00  7.967494629E+03
5.340624644E+00  7.964153809E+03
5.350803775E+00  7.964629395E+03
5.360982906E+00  7.953838379E+03
5.371162036E+00  7.947000000E+03
5.381341167E+00  7.943057617E+03
5.391520298E+00  7.933056641E+03
5.401699428E+00  7.922224121E+03
5.411878559E+00  7.907462891E+03
5.422057689E+00  7.900168457E+03
5.432236820E+00  7.897248047E+03
5.442415951E+00  7.899624512E+03
5.452595081E+00  7.890445801E+03
5.462774212E+00  7.882467773E+03
5.472953343E+00  7.880774414E+03
5.483132473E+00  7.873990234E+03
5.493311604E+00  7.858070312E+03
5.503490734E+00  7.849958984E+03
5.513669865E+00  7.843709473E+03
5.523848996E+00  7.835206543E+03
5.534028126E+00  7.824442871E+03
5.544207257E+00  7.815902344E+03
5.554386387E+00  7.815091797E+03
5.564565518E+00  7.816181641E+03
5.574744649E+00  7.811612793E+03
5.584923779E+00  7.811366699E+03
5.595102910E+00  7.808634766E+03
5.605282041E+00  7.799457031E+03
5.615461171E+00  7.798283203E+03
5.625640302E+00  7.801807129E+03
5.635819432E+00  7.794324707E+03
5.645998563E+00  7.779671875E+03
5.656177694E+00  7.766201172E+03
5.666356824E+00  7.762519043E+03
5.676535955E+00  7.760622070E+03
5.686715086E+00  7.752815430E+03
5.696894216E+00  7.751593262E+03
5.707073347E+00  7.753646484E+03
5.717252477E+00  7.752172852E+03
5.727431608E+00  7.744962891E+03
5.737610739E+00  7.733214844E+03
5.747789869E+00  7.725357422E+03
5.757969000E+00  7.714424316E+03
5.768148130E+00  7.706734863E+03
5.778327261E+00  7.705382812E+03
5.788506392E+00  7.708422852E+03
5.798685522E+00  7.706561035E+03
5.808864653E+00  7.704110352E+03
5.819043784E+00  7.699285645E+03
5.829222914E+00  7.694809082E+03
5.839402045E+00  7.680328613E+03
5.849581175E+00  7.665494141E+03
5.859760306E+00  7.654250488E+03
5.869939437E+00  7.647095215E+03
5.880118567E+00  7.641492188E+03
5.890297698E+00  7.633734863E+03
5.900476829E+00  7.629136230E+03
5.910655959E+00  7.628882324E+03
5.920835090E+00  7.629170898E+03
5.931014220E+00  7.624820801E+03
5.941193351E+00  7.614749512E+03
5.951372482E+00  7.599804199E+03
5.961551612E+00  7.589577637E+03
5.971730743E+00  7.578245117E+03
5.981909873E+00  7.567879883E+03
5.992089004E+00  7.565629883E+03
6.002268135E+00  7.561606934E+03
6.012447265E+00  7.564977539E+03
6.022626396E+00  7.569106445E+03
6.032805527E+00  7.564627441E+03
6.042984657E+00  7.550528320E+03
6.053163788E+00  7.536542480E+03
6.063342918E+00  7.529618164E+03
6.073522049E+00  7.527979004E+03
6.083701180E+00  7.530883301E+03
6.093880310E+00  7.527479492E+03
6.104059441E+00  7.519351074E+03
6.114238572E+00  7.502271973E+03
6.124417702E+00  7.494375488E+03
6.134596833E+00  7.492834961E+03
6.144775963E+00  7.492537598E+03
6.154955094E+00  7.487033691E+03
6.165134225E+00  7.484342285E+03
6.175313355E+00  7.481558594E+03
6.185492486E+00  7.479557617E+03
6.195671616E+00  7.473818848E+03
6.205850747E+00  7.471543457E+03
6.216029878E+00  7.464765625E+03
6.226209008E+00  7.453892090E+03
6.236388139E+00  7.447631348E+03
6.246567270E+00  7.443512695E+03
6.256746400E+00  7.432845703E+03
6.266925531E+00  7.428648438E+03
6.277104661E+00  7.426478516E+03
6.287283792E+00  7.423791504E+03
6.297462923E+00  7.419024414E+03
6.307642053E+00  7.416709473E+03
6.317821184E+00  7.412519043E+03
6.328000315E+00  7.402561523E+03
6.338179445E+00  7.388654785E+03
6.348358576E+00  7.377271973E+03
6.358537706E+00  7.369058594E+03
6.368716837E+00  7.369172363E+03
6.378895968E+00  7.372685059E+03
6.389075098E+00  7.374740234E+03
6.399254229E+00  7.373414551E+03
6.409433359E+00  7.363520508E+03
6.419612490E+00  7.351774414E+03
6.429791621E+00  7.339366211E+03
6.439970751E+00  7.332963867E+03
6.450149882E+00  7.324205078E+03
6.460329013E+00  7.317069336E+03
6.470508143E+00  7.307738770E+03
6.480687274E+00  7.302828125E+03
6.490866404E+00  7.301501465E+03
6.501045535E+00  7.297210938E+03
6.511224666E+00  7.288828613E+03
6.521403796E+00  7.284271973E+03
6.531582927E+00  7.278868164E+03
6.541762058E+00  7.275183105E+03
6.551941188E+00  7.272702637E+03
6.562120319E+00  7.272305176E+03
6.572299449E+00  7.265067871E+03
6.582478580E+00  7.254343750E+03
6.592657711E+00  7.239885742E+03
6.602836841E+00  7.231082520E+03
6.613015972E+00  7.228756836E+03
6.623195102E+00  7.233738281E+03
6.633374233E+00  7.231313965E+03
6.643553364E+00  7.220341797E+03
6.653732494E+00  7.208704590E+03
6.663911625E+00  7.203845703E+03
6.674090756E+00  7.200087402E+03
6.684269886E+00  7.194163086E+03
6.694449017E+00  7.185356445E+03
6.704628147E+00  7.184685059E+03
6.714807278E+00  7.177984863E+03
6.724986409E+00  7.168819336E+03
6.735165539E+00  7.163235352E+03
6.745344670E+00  7.154655762E+03
6.755523800E+00  7.144487793E+03
6.765702931E+00  7.138412109E+03
6.775882062E+00  7.139005371E+03
6.786061192E+00  7.137674805E+03
6.796240323E+00  7.127858887E+03
6.806419454E+00  7.115335449E+03
6.816598584E+00  7.105133301E+03
6.826777715E+00  7.095723633E+03
6.836956845E+00  7.091300293E+03
6.847135976E+00  7.084542480E+03
6.857315107E+00  7.077442871E+03
6.867494237E+00  7.068559082E+03
6.877673368E+00  7.064911621E+03
6.887852499E+00  7.060475586E+03
6.898031629E+00  7.055648926E+03
6.908210760E+00  7.045409180E+03
6.918389890E+00  7.035213379E+03
6.928569021E+00  7.034307617E+03
6.938748152E+00  7.034189453E+03
6.948927282E+00  7.031598145E+03
6.959106413E+00  7.017109863E+03
6.969285543E+00  7.004963867E+03
6.979464674E+00  6.999875977E+03
6.989643805E+00  6.993460938E+03
6.999822935E+00  6.978284180E+03
7.010002066E+00  6.966885742E+03
7.020181197E+00  6.964466797E+03
7.030360327E+00  6.960610352E+03
7.040539458E+00  6.955299316E+03
7.050718588E+00  6.952416992E+03
7.060897719E+00  6.946084473E+03
7.071076850E+00  6.936005859E+03
7.081255980E+00  6.924495605E+03
7.091435111E+00  6.913319824E+03
7.101614242E+00  6.905904785E+03
7.111793372E+00  6.904045898E+03
7.121972503E+00  6.901047852E+03
7.132151633E+00  6.896579590E+03
7.142330764E+00  6.890243164E+03
7.152509895E+00  6.882319336E+03
7.162689025E+00  6.874940430E+03
7.172868156E+00  6.865634766E+03
7.183047286E+00  6.853651367E+03
7.193226417E+00  6.844701660E+03
7.203405548E+00  6.839067871E+03
7.213584678E+00  6.834012207E+03
7.223763809E+00  6.829904785E+03
7.233942940E+00  6.827364258E+03
7.244122070E+00  6.823881348E+03
7.254301201E+00  6.818728516E+03
7.264480331E+00  6.811170410E+03
7.274659462E+00  6.799896973E+03
7.284838593E+00  6.789634766E+03
7.295017723E+00  6.778636230E+03
7.305196854E+00  6.770349121E+03
7.315375985E+00  6.767086426E+03
7.325555115E+00  6.765415039E+03
7.335734246E+00  6.767591797E+03
7.345913376E+00  6.763280762E+03
7.356092507E+00  6.754151855E+03
7.366271638E+00  6.742914062E+03
7.376450768E+00  6.731758301E+03
7.386629899E+00  6.720756836E+03
7.396809029E+00  6.709521484E+03
7.406988160E+00  6.697911133E+03
7.417167291E+00  6.691321289E+03
7.427346421E+00  6.686845215E+03
7.437525552E+00  6.682016113E+03
7.447704683E+00  6.674003418E+03
7.457883813E+00  6.664056641E+03
7.468062944E+00  6.654105957E+03
7.478242074E+00  6.647141602E+03
7.488421205E+00  6.643715332E+03
7.498600336E+00  6.632458008E+03
7.508779466E+00  6.617425293E+03
7.518958597E+00  6.607785156E+03
7.529137728E+00  6.601645508E+03
7.539316858E+00  6.596026367E+03
7.549495989E+00  6.587472656E+03
7.559675119E+00  6.584021973E+03
7.569854250E+00  6.580426270E+03
7.580033381E+00  6.576384766E+03
7.590212511E+00  6.568846191E+03
7.600391642E+00  6.558150391E+03
7.610570772E+00  6.546642578E+03
7.620749903E+00  6.536520508E+03
7.630929034E+00  6.528405273E+03
7.641108164E+00  6.521791016E+03
7.651287295E+00  6.513922852E+03
7.661466426E+00  6.508194824E+03
7.671645556E+00  6.502063477E+03
7.681824687E+00  6.488072266E+03
7.692003817E+00  6.472228516E+03
7.702182948E+00  6.462561035E+03
7.712362079E+00  6.458026855E+03
7.722541209E+00  6.450099121E+03
7.732720340E+00  6.441350098E+03
7.742899471E+00  6.434209961E+03
7.753078601E+00  6.430829102E+03
7.763257732E+00  6.427230957E+03
7.773436862E+00  6.420586426E+03
7.783615993E+00  6.412432617E+03
7.793795124E+00  6.397097656E+03
7.803974254E+00  6.380566406E+03
7.814153385E+00  6.366725098E+03
7.824332515E+00  6.360333984E+03
7.834511646E+00  6.353924805E+03
7.844690777E+00  6.348592285E+03
7.854869907E+00  6.347897461E+03
7.865049038E+00  6.343158691E+03
7.875228169E+00  6.330004395E+03
7.885407299E+00  6.319820312E+03
7.895586430E+00  6.311621094E+03
7.905765560E+00  6.301238281E+03
7.915944691E+00  6.292545410E+03
7.926123822E+00  6.283901855E+03
7.936302952E+00  6.272739258E+03
7.946482083E+00  6.261720215E+03
7.956661214E+00  6.257085449E+03
7.966840344E+00  6.248947266E+03
7.977019475E+00  6.240265625E+03
7.987198605E+00  6.237625000E+03
7.997377736E+00  6.235671875E+03
8.007556867E+00  6.228464844E+03
8.017735997E+00  6.218740723E+03
8.027915128E+00  6.210624023E+03
8.038094258E+00  6.200580566E+03
8.048273389E+00  6.196326172E+03
8.058452520E+00  6.190785156E+03
8.068631650E+00  6.184193848E+03
8.078810781E+00  6.174731445E+03
8.088989912E+00  6.165343262E+03
8.099169042E+00  6.160255371E+03
8.109348173E+00  6.152280273E+03
8.119527303E+00  6.146111816E+03
8.129706434E+00  6.138196777E+03
8.139885565E+00  6.130122070E+03
8.150064695E+00  6.120060059E+03
8.160243826E+00  6.104358887E+03
8.170422957E+00  6.088313965E+03
8.180602087E+00  6.079847656E+03
8.190781218E+00  6.075011719E+03
8.200960348E+00  6.070083984E+03
8.211139479E+00  6.065390137E+03
8.221318610E+00  6.056883301E+03
8.231497740E+00  6.047448730E+03
8.241676871E+00  6.038592773E+03
8.251856001E+00  6.026968262E+03
8.262035132E+00  6.016615723E+03
8.272214263E+00  6.010727051E+03
8.282393393E+00  6.006682129E+03
8.292572524E+00  6.000631836E+03
8.302751655E+00  5.994802246E+03
8.312930785E+00  5.992963867E+03
8.323109916E+00  5.986269531E+03
8.333289046E+00  5.978658203E+03
8.343468177E+00  5.971687500E+03
8.353647308E+00  5.964216797E+03
8.363826438E+00  5.954126465E+03
8.374005569E+00  5.942012695E+03
8.384184700E+00  5.935563965E+03
8.394363830E+00  5.931884766E+03
8.404542961E+00  5.924071289E+03
8.414722091E+00  5.914989746E+03
8.424901222E+00  5.903179199E+03
8.435080353E+00  5.892231445E+03
8.445259483E+00  5.884648926E+03
8.455438614E+00  5.880214355E+03
8.465617744E+00  5.876100098E+03
8.475796875E+00  5.869972656E+03
8.485976006E+00  5.863973145E+03
8.496155136E+00  5.860024414E+03
8.506334267E+00  5.854920898E+03
8.516513398E+00  5.848960938E+03
8.526692528E+00  5.836555664E+03
8.536871659E+00  5.825179199E+03
8.547050789E+00  5.813312500E+03
8.557229920E+00  5.798504395E+03
8.567409051E+00  5.788124512E+03
8.577588181E+00  5.785052246E+03
8.587767312E+00  5.780752441E+03
8.597946443E+00  5.775887695E+03
8.608125573E+00  5.771186523E+03
8.618304704E+00  5.763407715E+03
8.628483834E+00  5.753135742E+03
8.638662965E+00  5.746841309E+03
8.648842096E+00  5.736545410E+03
8.659021226E+00  5.728077637E+03
8.669200357E+00  5.716547852E+03
8.679379487E+00  5.707058594E+03
8.689558618E+00  5.699201172E+03
8.699737749E+00  5.693805664E+03
8.709916879E+00  5.689522949E+03
8.720096010E+00  5.685651367E+03
8.730275141E+00  5.679249023E+03
8.740454271E+00  5.668462402E+03
8.750633402E+00  5.661162598E+03
8.760812532E+00  5.655042480E+03
8.770991663E+00  5.650817871E+03
8.781170794E+00  5.645827637E+03
8.791349924E+00  5.640306152E+03
8.801529055E+00  5.629919922E+03
8.811708185E+00  5.617154785E+03
8.821887316E+00  5.606195801E+03
8.832066447E+00  5.596252930E+03
8.842245577E+00  5.586663086E+03
8.852424708E+00  5.578953613E+03
8.862603839E+00  5.573583496E+03
8.872782969E+00  5.569577148E+03
8.882962100E+00  5.563659180E+03
8.893141230E+00  5.554853516E+03
8.903320361E+00  5.549403320E+03
8.913499492E+00  5.547236328E+03
8.923678622E+00  5.542272949E+03
8.933857753E+00  5.534630371E+03
8.944036884E+00  5.524102051E+03
8.954216014E+00  5.514714355E+03
8.964395145E+00  5.506674316E+03
8.974574275E+00  5.503620117E+03
8.984753406E+00  5.500357910E+03
8.994932537E+00  5.493358887E+03
9.005111667E+00  5.482594238E+03
9.015290798E+00  5.472600586E+03
9.025469928E+00  5.464203125E+03
9.035649059E+00  5.454052246E+03
9.045828190E+00  5.442802734E+03
9.056007320E+00  5.433183105E+03
9.066186451E+00  5.428190918E+03
9.076365582E+00  5.421731934E+03
9.086544712E+00  5.417492188E+03
9.096723843E+00  5.417533691E+03
9.106902973E+00  5.416147949E+03
9.117082104E+00  5.405355957E+03
9.127261235E+00  5.393182617E+03
9.137440365E+00  5.386024414E+03
9.147619496E+00  5.381900391E+03
9.157798627E+00  5.376047363E+03
9.167977757E+00  5.364384277E+03
9.178156888E+00  5.352174805E+03
9.188336018E+00  5.345626465E+03
9.198515149E+00  5.339290527E+03
9.208694280E+00  5.330113281E+03
9.218873410E+00  5.318346191E+03
9.229052541E+00  5.304795898E+03
9.239231671E+00  5.294013184E+03
9.249410802E+00  5.286673340E+03
9.259589933E+00  5.285897461E+03
9.269769063E+00  5.286212891E+03
9.279948194E+00  5.283220703E+03
9.290127325E+00  5.275680664E+03
9.300306455E+00  5.263115723E+03
9.310485586E+00  5.251678223E+03
9.320664716E+00  5.243294434E+03
9.330843847E+00  5.238776855E+03
9.341022978E+00  5.232518555E+03
9.351202108E+00  5.226088867E+03
9.361381239E+00  5.216624512E+03
9.371560370E+00  5.206969238E+03
9.381739500E+00  5.197638184E+03
9.391918631E+00  5.189456055E+03
9.402097761E+00  5.182542480E+03
9.412276892E+00  5.178242676E+03
9.422456023E+00  5.172554688E+03
9.432635153E+00  5.166696289E+03
9.442814284E+00  5.161531250E+03
9.452993414E+00  5.154939941E+03
9.463172545E+00  5.146219238E+03
9.473351676E+00  5.140303223E+03
9.483530806E+00  5.135092285E+03
9.493709937E+00  5.129342285E+03
9.503889068E+00  5.124554688E+03
9.514068198E+00  5.119009277E+03
9.524247329E+00  5.110720215E+03
9.534426459E+00  5.099254395E+03
9.544605590E+00  5.091653320E+03
9.554784721E+00  5.084107422E+03
9.564963851E+00  5.074962891E+03
9.575142982E+00  5.069243652E+03
9.585322113E+00  5.063222656E+03
9.595501243E+00  5.056113281E+03
9.605680374E+00  5.048204590E+03
9.615859504E+00  5.042922363E+03
9.626038635E+00  5.036411621E+03
9.636217766E+00  5.028473145E+03
9.646396896E+00  5.020627441E+03
9.656576027E+00  5.012286133E+03
9.666755157E+00  5.006754395E+03
9.676934288E+00  5.003250488E+03
9.687113419E+00  4.996923828E+03
9.697292549E+00  4.988908691E+03
9.707471680E+00  4.981544434E+03
9.717650811E+00  4.971423340E+03
9.727829941E+00  4.960800781E+03
9.738009072E+00  4.951809082E+03
9.748188202E+00  4.948229492E+03
9.758367333E+00  4.945744141E+03
9.768546464E+00  4.935679199E+03
9.778725594E+00  4.928298828E+03
9.788904725E+00  4.924051270E+03
9.799083856E+00  4.921078613E+03
9.809262986E+00  4.915788086E+03
9.819442117E+00  4.908066895E+03
9.829621247E+00  4.896890625E+03
9.839800378E+00  4.889826172E+03
9.849979509E+00  4.885942871E+03
9.860158639E+00  4.880049316E+03
9.870337770E+00  4.873458984E+03
9.880516900E+00  4.865542480E+03
9.890696031E+00  4.855863281E+03
9.900875162E+00  4.847674805E+03
9.911054292E+00  4.841054199E+03
9.921233423E+00  4.834397461E+03
9.931412554E+00  4.826833984E+03
9.941591684E+00  4.820119141E+03
9.951770815E+00  4.811066406E+03
9.961949945E+00  4.802175781E+03
9.972129076E+00  4.794236328E+03
9.982308207E+00  4.787245117E+03
9.992487337E+00  4.783071289E+03
1.000266647E+01  4.777033203E+03
1.001284560E+01  4.768625000E+03
1.002302473E+01  4.761974121E+03
1.003320386E+01  4.754007324E+03
1.004338299E+01  4.746433594E+03
1.005356212E+01  4.739728027E+03
1.006374125E+01  4.733725586E+03
1.007392038E+01  4.729445801E+03
1.008409951E+01  4.724423340E+03
1.009427864E+01  4.720900879E+03
1.010445777E+01  4.718546875E+03
1.011463690E+01  4.714175293E+03
1.012481604E+01  4.707350586E+03
1.013499517E+01  4.699062988E+03
1.014517430E+01  4.691451660E+03
1.015535343E+01  4.681950195E+03
1.016553256E+01  4.669757324E+03
1.017571169E+01  4.662228027E+03
1.018589082E+01  4.655327148E+03
1.019606995E+01  4.648669434E+03
1.020624908E+01  4.643349609E+03
1.021642821E+01  4.639372559E+03
1.022660734E+01  4.632312012E+03
1.023678647E+01  4.625728027E+03
1.024696560E+01  4.620838379E+03
1.025714473E+01  4.611911621E+03
1.026732386E+01  4.602240723E+03
1.027750299E+01  4.592870117E+03
1.028768213E+01  4.583356934E+03
1.029786126E+01  4.576082520E+03
1.030804039E+01  4.570687500E+03
1.031821952E+01  4.566184082E+03
1.032839865E+01  4.563146484E+03
1.033857778E+01  4.561756348E+03
1.034875691E+01  4.555216309E+03
1.035893604E+01  4.547157715E+03
1.036911517E+01  4.539393555E+03
1.037929430E+01  4.534550293E+03
1.038947343E+01  4.528247070E+03
1.039965256E+01  4.521123535E+03
1.040983169E+01  4.512901855E+03
1.042001082E+01  4.505269531E+03
1.043018995E+01  4.496274902E+03
1.044036908E+01  4.489855957E+03
1.045054822E+01  4.486027832E+03
1.046072735E+01  4.483215332E+03
1.047090648E+01  4.475911133E+03
1.048108561E+01  4.467607422E+03
1.049126474E+01  4.460844238E+03
1.050144387E+01  4.456077148E+03
1.051162300E+01  4.450195312E+03
1.052180213E+01  4.444031738E+03
1.053198126E+01  4.437671387E+03
1.054216039E+01  4.432134277E+03
1.055233952E+01  4.426521973E+03
1.056251865E+01  4.422120117E+03
1.057269778E+01  4.416730957E+03
1.058287691E+01  4.407863281E+03
1.059305604E+01  4.397533203E+03
1.060323517E+01  4.389559082E+03
1.061341431E+01  4.384659180E+03
1.062359344E+01  4.378309082E+03
1.063377257E+01  4.372000000E+03
1.064395170E+01  4.366697266E+03
1.065413083E+01  4.360388672E+03
1.066430996E+01  4.352322266E+03
1.067448909E+01  4.344376953E+03
1.068466822E+01  4.334529297E+03
1.069484735E+01  4.327881348E+03
1.070502648E+01  4.322674316E+03
1.071520561E+01  4.317697266E+03
1.072538474E+01  4.312465332E+03
1.073556387E+01  4.308409180E+03
1.074574300E+01  4.300039062E+03
1.075592213E+01  4.290233887E+03
1.076610126E+01  4.281405273E+03
1.077628039E+01  4.274081543E+03
1.078645953E+01  4.268498535E+03
1.079663866E+01  4.265484375E+03
1.080681779E+01  4.263804688E+03
1.081699692E+01  4.257053223E+03
1.082717605E+01  4.249825195E+03
1.083735518E+01  4.247531738E+03
1.084753431E+01  4.246405273E+03
1.085771344E+01  4.241584473E+03
1.086789257E+01  4.232521484E+03
1.087807170E+01  4.225537109E+03
1.088825083E+01  4.217323242E+03
1.089842996E+01  4.209470215E+03
1.090860909E+01  4.205694336E+03
1.091878822E+01  4.201070312E+03
1.092896735E+01  4.194896973E+03
1.093914648E+01  4.188282227E+03
1.094932562E+01  4.181720215E+03
1.095950475E+01  4.176667480E+03
1.096968388E+01  4.168031738E+03
1.097986301E+01  4.158951172E+03
1.099004214E+01  4.152893066E+03
1.100022127E+01  4.148445801E+03
1.101040040E+01  4.142006348E+03
1.102057953E+01  4.134991699E+03
1.103075866E+01  4.130751953E+03
1.104093779E+01  4.128633789E+03
1.105111692E+01  4.127205078E+03
1.106129605E+01  4.124137207E+03
1.107147518E+01  4.116249023E+03
1.108165431E+01  4.109401367E+03
1.109183344E+01  4.103715332E+03
1.110201257E+01  4.097343262E+03
1.111219171E+01  4.092943604E+03
1.112237084E+01  4.089204102E+03
1.113254997E+01  4.085747314E+03
1.114272910E+01  4.084351562E+03
1.115290823E+01  4.081900391E+03
1.116308736E+01  4.076596924E+03
1.117326649E+01  4.071437256E+03
1.118344562E+01  4.065518555E+03
1.119362475E+01  4.060709473E+03
1.120380388E+01  4.054182129E+03
1.121398301E+01  4.051917480E+03
1.122416214E+01  4.048074707E+03
1.123434127E+01  4.041134277E+03
1.124452040E+01  4.032845703E+03
1.125469953E+01  4.026675537E+03
1.126487866E+01  4.022020996E+03
1.127505780E+01  4.013928711E+03
1.128523693E+01  4.007562988E+03
1.129541606E+01  4.004512695E+03
1.130559519E+01  3.999608643E+03
1.131577432E+01  3.993737061E+03
1.132595345E+01  3.991029053E+03
1.133613258E+01  3.987470947E+03
1.134631171E+01  3.983402100E+03
1.135649084E+01  3.979930908E+03
1.136666997E+01  3.976785889E+03
1.137684910E+01  3.972031738E+03
1.138702823E+01  3.965540527E+03
1.139720736E+01  3.960960449E+03
1.140738649E+01  3.954349854E+03
1.141756562E+01  3.948705811E+03
1.142774475E+01  3.945405518E+03
1.143792389E+01  3.942468018E+03
1.144810302E+01  3.940697021E+03
1.145828215E+01  3.935686279E+03
1.146846128E+01  3.928185303E+03
1.147864041E+01  3.922676025E+03
1.148881954E+01  3.918392822E+03
1.149899867E+01  3.913446289E+03
1.150917780E+01  3.909457764E+03
1.151935693E+01  3.906236816E+03
1.152953606E+01  3.902380615E+03
1.153971519E+01  3.894461426E+03
1.154989432E+01  3.886914795E+03
1.156007345E+01  3.880553223E+03
1.157025258E+01  3.876733887E+03
1.158043171E+01  3.874027832E+03
1.159061084E+01  3.872110596E+03
1.160078998E+01  3.868299316E+03
1.161096911E+01  3.864717285E+03
1.162114824E+01  3.858886230E+03
1.163132737E+01  3.854709717E+03
1.164150650E+01  3.852440674E+03
1.165168563E+01  3.851618408E+03
1.166186476E+01  3.848159668E+03
1.167204389E+01  3.843714111E+03
1.168222302E+01  3.840159424E+03
1.169240215E+01  3.836294189E+03
1.170258128E+01  3.833161133E+03
1.171276041E+01  3.828176514E+03
1.172293954E+01  3.820719971E+03
1.173311867E+01  3.812646484E+03
1.174329780E+01  3.806613770E+03
1.175347693E+01  3.802834229E+03
1.176365606E+01  3.799375977E+03
1.177383520E+01  3.797358643E+03
1.178401433E+01  3.794812988E+03
1.179419346E+01  3.791654785E+03
1.180437259E+01  3.788622803E+03
1.181455172E+01  3.782130615E+03
1.182473085E+01  3.774270996E+03
1.183490998E+01  3.767888184E+03
1.184508911E+01  3.766396484E+03
1.185526824E+01  3.767038330E+03
1.186544737E+01  3.764190186E+03
1.187562650E+01  3.758144775E+03
1.188580563E+01  3.751904785E+03
1.189598476E+01  3.746438965E+03
1.190616389E+01  3.742256836E+03
1.191634302E+01  3.738443115E+03
1.192652215E+01  3.734699951E+03
1.193670129E+01  3.729076172E+03
1.194688042E+01  3.723087158E+03
1.195705955E+01  3.718418701E+03
1.196723868E+01  3.714089111E+03
1.197741781E+01  3.710903320E+03
1.198759694E+01  3.707684814E+03
1.199777607E+01  3.703804932E+03
1.200795520E+01  3.697667969E+03
1.201813433E+01  3.693749268E+03
1.202831346E+01  3.691237793E+03
1.203849259E+01  3.688383789E+03
1.204867172E+01  3.682662842E+03
1.205885085E+01  3.678837891E+03
1.206902998E+01  3.677235107E+03
1.207920911E+01  3.675946533E+03
1.208938824E+01  3.672156250E+03
1.209956738E+01  3.667231201E+03
1.210974651E+01  3.661205811E+03
1.211992564E+01  3.658678223E+03
1.213010477E+01  3.654877686E+03
1.214028390E+01  3.647697998E+03
1.215046303E+01  3.638982422E+03
1.216064216E+01  3.636538086E+03
1.217082129E+01  3.635025879E+03
1.218100042E+01  3.630138672E+03
1.219117955E+01  3.623160889E+03
1.220135868E+01  3.618411377E+03
1.221153781E+01  3.614690918E+03
1.222171694E+01  3.611255371E+03
1.223189607E+01  3.608133789E+03
1.224207520E+01  3.604276855E+03
1.225225433E+01  3.601177490E+03
1.226243347E+01  3.597942871E+03
1.227261260E+01  3.591037842E+03
1.228279173E+01  3.586843506E+03
1.229297086E+01  3.584683838E+03
1.230314999E+01  3.582991943E+03
1.231332912E+01  3.578672852E+03
1.232350825E+01  3.573463135E+03
1.233368738E+01  3.569643799E+03
1.234386651E+01  3.565791260E+03
1.235404564E+01  3.560346680E+03
1.236422477E+01  3.554543457E+03
1.237440390E+01  3.550392334E+03
1.238458303E+01  3.549761475E+03
1.239476216E+01  3.549359863E+03
1.240494129E+01  3.545011475E+03
1.241512042E+01  3.539659668E+03
1.242529956E+01  3.532598389E+03
1.243547869E+01  3.527335938E+03
1.244565782E+01  3.522929443E+03
1.245583695E+01  3.519015625E+03
1.246601608E+01  3.514088135E+03
1.247619521E+01  3.510652832E+03
1.248637434E+01  3.504286133E+03
1.249655347E+01  3.498797852E+03
1.250673260E+01  3.497524170E+03
1.251691173E+01  3.495501221E+03
1.252709086E+01  3.491169434E+03
1.253726999E+01  3.488257812E+03
1.254744912E+01  3.485494629E+03
1.255762825E+01  3.479737305E+03
1.256780738E+01  3.473835938E+03
1.257798651E+01  3.469905029E+03
1.258816565E+01  3.466735352E+03
1.259834478E+01  3.464203613E+03
1.260852391E+01  3.463779297E+03
1.261870304E+01  3.462044678E+03
1.262888217E+01  3.458440918E+03
1.263906130E+01  3.455783691E+03
1.264924043E+01  3.453120361E+03
1.265941956E+01  3.448444092E+03
1.266959869E+01  3.443860352E+03
1.267977782E+01  3.436425049E+03
1.268995695E+01  3.431129395E+03
1.270013608E+01  3.430820312E+03
1.271031521E+01  3.433070801E+03
1.272049434E+01  3.429985352E+03
1.273067347E+01  3.422249268E+03
1.274085260E+01  3.416601074E+03
1.275103173E+01  3.411488770E+03
1.276121087E+01  3.404961914E+03
1.277139000E+01  3.400604004E+03
1.278156913E+01  3.396805420E+03
1.279174826E+01  3.394451904E+03
1.280192739E+01  3.391022705E+03
1.281210652E+01  3.388336182E+03
1.282228565E+01  3.387012695E+03
1.283246478E+01  3.383312256E+03
1.284264391E+01  3.377913086E+03
1.285282304E+01  3.374301025E+03
1.286300217E+01  3.372079102E+03
1.287318130E+01  3.370023926E+03
1.288336043E+01  3.368293945E+03
1.289353956E+01  3.364276367E+03
1.290371869E+01  3.360163574E+03
1.291389782E+01  3.357520264E+03
1.292407696E+01  3.356415527E+03
1.293425609E+01  3.354522949E+03
1.294443522E+01  3.350087158E+03
1.295461435E+01  3.345416748E+03
1.296479348E+01  3.342586670E+03
1.297497261E+01  3.338707275E+03
1.298515174E+01  3.335526367E+03
1.299533087E+01  3.331634277E+03
1.300551000E+01  3.328473877E+03
1.301568913E+01  3.325327881E+03
1.302586826E+01  3.321727783E+03
1.303604739E+01  3.316806641E+03
1.304622652E+01  3.315402100E+03
1.305640565E+01  3.313976074E+03
1.306658478E+01  3.311736328E+03
1.307676391E+01  3.306343262E+03
1.308694305E+01  3.302575439E+03
1.309712218E+01  3.298708740E+03
1.310730131E+01  3.295245117E+03
1.311748044E+01  3.293580078E+03
1.312765957E+01  3.289252930E+03
1.313783870E+01  3.283361328E+03
1.314801783E+01  3.279288086E+03
1.315819696E+01  3.278430176E+03
1.316837609E+01  3.277311768E+03
1.317855522E+01  3.273305420E+03
1.318873435E+01  3.267854980E+03
1.319891348E+01  3.264083984E+03
1.320909261E+01  3.260521240E+03
1.321927174E+01  3.257212646E+03
1.322945087E+01  3.254492676E+03
1.323963000E+01  3.253329102E+03
1.324980914E+01  3.254611328E+03
1.325998827E+01  3.253558105E+03
1.327016740E+01  3.249854492E+03
1.328034653E+01  3.245620850E+03
1.329052566E+01  3.242404785E+03
1.330070479E+01  3.243523438E+03
1.331088392E+01  3.244162598E+03
1.332106305E+01  3.239491943E+03
1.333124218E+01  3.233956055E+03
1.334142131E+01  3.230858643E+03
1.335160044E+01  3.227956787E+03
1.336177957E+01  3.223729248E+03
1.337195870E+01  3.217288818E+03
1.338213783E+01  3.210966064E+03
1.339231696E+01  3.206869385E+03
1.340249609E+01  3.205892334E+03
1.341267523E+01  3.202865479E+03
1.342285436E+01  3.197894531E+03
1.343303349E+01  3.193930420E+03
1.344321262E+01  3.191538818E+03
1.345339175E+01  3.188541992E+03
1.346357088E+01  3.186594727E+03
1.347375001E+01  3.185816650E+03
1.348392914E+01  3.181525879E+03
1.349410827E+01  3.175980225E+03
1.350428740E+01  3.171787842E+03
1.351446653E+01  3.170258545E+03
1.352464566E+01  3.168761719E+03
1.353482479E+01  3.166252197E+03
1.354500392E+01  3.161928223E+03
1.355518305E+01  3.157640381E+03
1.356536218E+01  3.153773926E+03
1.357554132E+01  3.150842041E+03
1.358572045E+01  3.145005615E+03
1.359589958E+01  3.142605225E+03
1.360607871E+01  3.143224121E+03
1.361625784E+01  3.140014893E+03
1.362643697E+01  3.133500244E+03
1.363661610E+01  3.130719482E+03
1.364679523E+01  3.130153076E+03
1.365697436E+01  3.126649170E+03
1.366715349E+01  3.122420410E+03
1.367733262E+01  3.118315918E+03
1.368751175E+01  3.116676270E+03
1.369769088E+01  3.113755615E+03
1.370787001E+01  3.112668701E+03
1.371804914E+01  3.111897949E+03
1.372822827E+01  3.110046387E+03
1.373840741E+01  3.108498047E+03
1.374858654E+01  3.107516846E+03
1.375876567E+01  3.104200439E+03
1.376894480E+01  3.099269531E+03
1.377912393E+01  3.096252930E+03
1.378930306E+01  3.094730713E+03
1.379948219E+01  3.092064697E+03
1.380966132E+01  3.088458740E+03
1.381984045E+01  3.085649170E+03
1.383001958E+01  3.083445068E+03
1.384019871E+01  3.080665527E+03
1.385037784E+01  3.077730713E+03
1.386055697E+01  3.074231689E+03
1.387073610E+01  3.072252441E+03
1.388091523E+01  3.070765137E+03
1.389109436E+01  3.066645020E+03
1.390127349E+01  3.065450195E+03
1.391145263E+01  3.067002197E+03
1.392163176E+01  3.068326904E+03
1.393181089E+01  3.064945557E+03
1.394199002E+01  3.061607666E+03
1.395216915E+01  3.058278564E+03
1.396234828E+01  3.057096924E+03
1.397252741E+01  3.054531494E+03
1.398270654E+01  3.051263916E+03
1.399288567E+01  3.045957275E+03
1.400306480E+01  3.041799805E+03
1.401324393E+01  3.039026611E+03
1.402342306E+01  3.037174072E+03
1.403360219E+01  3.035831055E+03
1.404378132E+01  3.032308350E+03
1.405396045E+01  3.029375488E+03
1.406413958E+01  3.029555908E+03
1.407431872E+01  3.028543945E+03
1.408449785E+01  3.025408936E+03
1.409467698E+01  3.019900391E+03
1.410485611E+01  3.015259766E+03
1.411503524E+01  3.012781982E+03
1.412521437E+01  3.010139160E+03
1.413539350E+01  3.006458496E+03
1.414557263E+01  3.005662598E+03
1.415575176E+01  3.006162598E+03
1.416593089E+01  3.004125977E+03
1.417611002E+01  3.001918457E+03
1.418628915E+01  2.999436523E+03
1.419646828E+01  2.996639404E+03
1.420664741E+01  2.993831787E+03
1.421682654E+01  2.991283936E+03
1.422700567E+01  2.990038330E+03
1.423718481E+01  2.989469238E+03
1.424736394E+01  2.988555176E+03
1.425754307E+01  2.987099365E+03
1.426772220E+01  2.985659424E+03
1.427790133E+01  2.984626221E+03
1.428808046E+01  2.980957031E+03
1.429825959E+01  2.974625000E+03
1.430843872E+01  2.970432373E+03
1.431861785E+01  2.970921631E+03
1.432879698E+01  2.973490234E+03
1.433897611E+01  2.971405762E+03
1.434915524E+01  2.967065674E+03
1.435933437E+01  2.963998047E+03
1.436951350E+01  2.963271240E+03
1.437969263E+01  2.961898682E+03
1.438987176E+01  2.959189453E+03
1.440005090E+01  2.955285156E+03
1.441023003E+01  2.953180664E+03
1.442040916E+01  2.952723877E+03
1.443058829E+01  2.950775146E+03
1.444076742E+01  2.945744141E+03
1.445094655E+01  2.942015381E+03
1.446112568E+01  2.941688477E+03
1.447130481E+01  2.940195557E+03
1.448148394E+01  2.936252686E+03
1.449166307E+01  2.932092773E+03
1.450184220E+01  2.928477783E+03
1.451202133E+01  2.924991211E+03
1.452220046E+01  2.922777100E+03
1.453237959E+01  2.919260498E+03
1.454255872E+01  2.916816650E+03
1.455273785E+01  2.916787109E+03
1.456291699E+01  2.916884277E+03
1.457309612E+01  2.913636963E+03
1.458327525E+01  2.910711426E+03
1.459345438E+01  2.909951660E+03
1.460363351E+01  2.911577881E+03
1.461381264E+01  2.911530273E+03
1.462399177E+01  2.909491455E+03
1.463417090E+01  2.906534424E+03
1.464435003E+01  2.903016113E+03
1.465452916E+01  2.901430908E+03
1.466470829E+01  2.901410156E+03
1.467488742E+01  2.899999023E+03
1.468506655E+01  2.895865967E+03
1.469524568E+01  2.893770020E+03
1.470542481E+01  2.888729004E+03
1.471560394E+01  2.884129883E+03
1.472578308E+01  2.883083740E+03
1.473596221E+01  2.884423340E+03
1.474614134E+01  2.882304443E+03
1.475632047E+01  2.880516357E+03
1.476649960E+01  2.880684814E+03
1.477667873E+01  2.879062500E+03
1.478685786E+01  2.876800049E+03
1.479703699E+01  2.876586670E+03
1.480721612E+01  2.875671387E+03
1.481739525E+01  2.873186035E+03
1.482757438E+01  2.868433350E+03
1.483775351E+01  2.862978271E+03
1.484793264E+01  2.862085205E+03
1.485811177E+01  2.862886963E+03
1.486829090E+01  2.860730713E+03
1.487847003E+01  2.856870605E+03
1.488864916E+01  2.855093262E+03
1.489882830E+01  2.854486084E+03
1.490900743E+01  2.853569824E+03
1.491918656E+01  2.852439941E+03
1.492936569E+01  2.851002686E+03
1.493954482E+01  2.846605469E+03
1.494972395E+01  2.843814941E+03
1.495990308E+01  2.844797363E+03
1.497008221E+01  2.844722900E+03
1.498026134E+01  2.842885986E+03
1.499044047E+01  2.840749268E+03
1.500061960E+01  2.840394287E+03
1.501079873E+01  2.838904785E+03
1.502097786E+01  2.833760986E+03
1.503115699E+01  2.830985352E+03
1.504133612E+01  2.831712646E+03
1.505151525E+01  2.832850830E+03
1.506169439E+01  2.832316650E+03
1.507187352E+01  2.829759766E+03
1.508205265E+01  2.828153809E+03
1.509223178E+01  2.827892334E+03
1.510241091E+01  2.825956299E+03
1.511259004E+01  2.821375244E+03
1.512276917E+01  2.816619141E+03
1.513294830E+01  2.815188721E+03
1.514312743E+01  2.814776123E+03
1.515330656E+01  2.813898438E+03
1.516348569E+01  2.813569092E+03
1.517366482E+01  2.812952881E+03
1.518384395E+01  2.812418213E+03
1.519402308E+01  2.810409180E+03
1.520420221E+01  2.806403809E+03
1.521438134E+01  2.802935791E+03
1.522456048E+01  2.800340332E+03
1.523473961E+01  2.800014893E+03
1.524491874E+01  2.799236816E+03
1.525509787E+01  2.798226807E+03
1.526527700E+01  2.796843262E+03
1.527545613E+01  2.795224609E+03
1.528563526E+01  2.791940186E+03
1.529581439E+01  2.789731689E+03
1.530599352E+01  2.791466064E+03
1.531617265E+01  2.792792480E+03
1.532635178E+01  2.790281982E+03
1.533653091E+01  2.783468262E+03
1.534671004E+01  2.777962158E+03
1.535688917E+01  2.776542725E+03
1.536706830E+01  2.777616943E+03
1.537724743E+01  2.780457520E+03
1.538742657E+01  2.782330811E+03
1.539760570E+01  2.781236816E+03
1.540778483E+01  2.779543701E+03
1.541796396E+01  2.773965576E+03
1.542814309E+01  2.768447266E+03
1.543832222E+01  2.767668213E+03
1.544850135E+01  2.769326904E+03
1.545868048E+01  2.769611328E+03
1.546885961E+01  2.768485596E+03
1.547903874E+01  2.767743408E+03
1.548921787E+01  2.767055664E+03
1.549939700E+01  2.765056641E+03
1.550957613E+01  2.762384766E+03
1.551975526E+01  2.759575439E+03
1.552993439E+01  2.756025391E+03
1.554011352E+01  2.751865723E+03
1.555029266E+01  2.747791016E+03
1.556047179E+01  2.746943115E+03
1.557065092E+01  2.746365967E+03
1.558083005E+01  2.746623535E+03
1.559100918E+01  2.745787354E+03
1.560118831E+01  2.744447754E+03
1.561136744E+01  2.743974365E+03
1.562154657E+01  2.743273438E+03
1.563172570E+01  2.742080322E+03
1.564190483E+01  2.741602783E+03
1.565208396E+01  2.738983887E+03
1.566226309E+01  2.735596924E+03
1.567244222E+01  2.734974121E+03
1.568262135E+01  2.733398438E+03
1.569280048E+01  2.730096436E+03
1.570297961E+01  2.728026611E+03
1.571315875E+01  2.729595703E+03
1.572333788E+01  2.729049316E+03
1.573351701E+01  2.727177979E+03
1.574369614E+01  2.725270264E+03
1.575387527E+01  2.723548096E+03
1.576405440E+01  2.723179443E+03
1.577423353E+01  2.723593262E+03
1.578441266E+01  2.721987793E+03
1.579459179E+01  2.718690674E+03
1.580477092E+01  2.714968750E+03
1.581495005E+01  2.712895264E+03
1.582512918E+01  2.712617676E+03
1.583530831E+01  2.711656982E+03
1.584548744E+01  2.711689941E+03
1.585566657E+01  2.709785156E+03
1.586584570E+01  2.707632568E+03
1.587602483E+01  2.706396729E+03
1.588620397E+01  2.705476074E+03
1.589638310E+01  2.703951660E+03
1.590656223E+01  2.703206299E+03
1.591674136E+01  2.701911377E+03
1.592692049E+01  2.699661621E+03
1.593709962E+01  2.698518066E+03
1.594727875E+01  2.695230713E+03
1.595745788E+01  2.690220459E+03
1.596763701E+01  2.687515137E+03
1.597781614E+01  2.687800293E+03
1.598799527E+01  2.687229248E+03
1.599817440E+01  2.685754150E+03
1.600835353E+01  2.686241699E+03
1.601853266E+01  2.687119141E+03
1.602871179E+01  2.686871582E+03
1.603889092E+01  2.685724854E+03
1.604907006E+01  2.682345215E+03
1.605924919E+01  2.678903320E+03
1.606942832E+01  2.677520508E+03
1.607960745E+01  2.677380859E+03
1.608978658E+01  2.676522217E+03
1.609996571E+01  2.671920654E+03
1.611014484E+01  2.670423096E+03
1.612032397E+01  2.668931152E+03
1.613050310E+01  2.666089111E+03
1.614068223E+01  2.663043945E+03
1.615086136E+01  2.663336426E+03
1.616104049E+01  2.666478027E+03
1.617121962E+01  2.668514648E+03
1.618139875E+01  2.666683594E+03
1.619157788E+01  2.663037354E+03
1.620175701E+01  2.660820557E+03
1.621193615E+01  2.659787354E+03
1.622211528E+01  2.656475586E+03
1.623229441E+01  2.652876465E+03
1.624247354E+01  2.653118652E+03
1.625265267E+01  2.655849121E+03
1.626283180E+01  2.655789551E+03
1.627301093E+01  2.652362793E+03
1.628319006E+01  2.650531982E+03
1.629336919E+01  2.648254883E+03
1.630354832E+01  2.645333496E+03
1.631372745E+01  2.641209961E+03
1.632390658E+01  2.637834961E+03
1.633408571E+01  2.637256104E+03
1.634426484E+01  2.638705566E+03
1.635444397E+01  2.637360596E+03
1.636462310E+01  2.636158936E+03
1.637480224E+01  2.636444580E+03
1.638498137E+01  2.635073730E+03
1.639516050E+01  2.633250732E+03
1.640533963E+01  2.631820801E+03
1.641551876E+01  2.631904541E+03
1.642569789E+01  2.629674561E+03
1.643587702E+01  2.625983154E+03
1.644605615E+01  2.622171387E+03
1.645623528E+01  2.618968506E+03
1.646641441E+01  2.619654541E+03
1.647659354E+01  2.619637207E+03
1.648677267E+01  2.617266846E+03
1.649695180E+01  2.617605957E+03
1.650713093E+01  2.617775879E+03
1.651731006E+01  2.615817627E+03
1.652748919E+01  2.614604736E+03
1.653766833E+01  2.613471680E+03
1.654784746E+01  2.614268066E+03
1.655802659E+01  2.613691162E+03
1.656820572E+01  2.613455566E+03
1.657838485E+01  2.613104004E+03
1.658856398E+01  2.611562256E+03
1.659874311E+01  2.606018311E+03
1.660892224E+01  2.600876465E+03
1.661910137E+01  2.598515625E+03
1.662928050E+01  2.596692871E+03
1.663945963E+01  2.598471924E+03
1.664963876E+01  2.599878174E+03
1.665981789E+01  2.598857910E+03
1.666999702E+01  2.597206055E+03
1.668017615E+01  2.596788818E+03
1.669035528E+01  2.594815186E+03
1.670053442E+01  2.593362305E+03
1.671071355E+01  2.591350098E+03
1.672089268E+01  2.589806885E+03
1.673107181E+01  2.589453369E+03
1.674125094E+01  2.589195312E+03
1.675143007E+01  2.584800537E+03
1.676160920E+01  2.580939453E+03
1.677178833E+01  2.579671387E+03
1.678196746E+01  2.579029297E+03
1.679214659E+01  2.578263916E+03
1.680232572E+01  2.574397217E+03
1.681250485E+01  2.574075195E+03
1.682268398E+01  2.573800537E+03
1.683286311E+01  2.571861328E+03
1.684304224E+01  2.568207764E+03
1.685322137E+01  2.565615479E+03
1.686340050E+01  2.564820068E+03
1.687357964E+01  2.565572266E+03
1.688375877E+01  2.564372070E+03
1.689393790E+01  2.563315674E+03
1.690411703E+01  2.563920166E+03
1.691429616E+01  2.562515381E+03
1.692447529E+01  2.559363770E+03
1.693465442E+01  2.558256348E+03
1.694483355E+01  2.559869385E+03
1.695501268E+01  2.557899414E+03
1.696519181E+01  2.553484131E+03
1.697537094E+01  2.548626953E+03
1.698555007E+01  2.549021484E+03
1.699572920E+01  2.551445801E+03
1.700590833E+01  2.553540039E+03
1.701608746E+01  2.549171631E+03
1.702626659E+01  2.545743896E+03
1.703644573E+01  2.545666504E+03
1.704662486E+01  2.546373291E+03
1.705680399E+01  2.547725098E+03
1.706698312E+01  2.549975098E+03
1.707716225E+01  2.552375244E+03
1.708734138E+01  2.550534424E+03
1.709752051E+01  2.548826172E+03
1.710769964E+01  2.546914551E+03
1.711787877E+01  2.544885986E+03
1.712805790E+01  2.542103516E+03
1.713823703E+01  2.540399902E+03
1.714841616E+01  2.536376221E+03
1.715859529E+01  2.532715332E+03
1.716877442E+01  2.532082275E+03
1.717895355E+01  2.531692383E+03
1.718913268E+01  2.529374268E+03
1.719931182E+01  2.528195312E+03
1.720949095E+01  2.528589355E+03
1.721967008E+01  2.525845215E+03
1.722984921E+01  2.522922363E+03
1.724002834E+01  2.522933105E+03
1.725020747E+01  2.524587891E+03
1.726038660E+01  2.522789062E+03
1.727056573E+01  2.519449951E+03
1.728074486E+01  2.516892822E+03
1.729092399E+01  2.516312012E+03
1.730110312E+01  2.518625732E+03
1.731128225E+01  2.520115723E+03
1.732146138E+01  2.517784180E+03
1.733164051E+01  2.514978027E+03
1.734181964E+01  2.513634033E+03
1.735199877E+01  2.510562744E+03
1.736217791E+01  2.509836914E+03
1.737235704E+01  2.510966064E+03
1.738253617E+01  2.511124023E+03
1.739271530E+01  2.508567383E+03
1.740289443E+01  2.506221191E+03
1.741307356E+01  2.506442871E+03
1.742325269E+01  2.506847412E+03
1.743343182E+01  2.506343750E+03
1.744361095E+01  2.503982910E+03
1.745379008E+01  2.501706055E+03
1.746396921E+01  2.500273438E+03
1.747414834E+01  2.500036865E+03
1.748432747E+01  2.498674805E+03
1.749450660E+01  2.496875488E+03
1.750468573E+01  2.495612061E+03
1.751486486E+01  2.495284424E+03
1.752504400E+01  2.495271973E+03
1.753522313E+01  2.493695068E+03
1.754540226E+01  2.491132080E+03
1.755558139E+01  2.489214355E+03
1.756576052E+01  2.487903320E+03
1.757593965E+01  2.486006104E+03
1.758611878E+01  2.485309082E+03
1.759629791E+01  2.485818848E+03
1.760647704E+01  2.487364502E+03
1.761665617E+01  2.484570557E+03
1.762683530E+01  2.481134766E+03
1.763701443E+01  2.482326660E+03
1.764719356E+01  2.483456787E+03
1.765737269E+01  2.481819824E+03
1.766755182E+01  2.478983398E+03
1.767773095E+01  2.476791748E+03
1.768791009E+01  2.474769287E+03
1.769808922E+01  2.475947021E+03
1.770826835E+01  2.474067383E+03
1.771844748E+01  2.471320312E+03
1.772862661E+01  2.470595703E+03
1.773880574E+01  2.472088379E+03
1.774898487E+01  2.473131348E+03
1.775916400E+01  2.472519531E+03
1.776934313E+01  2.471453369E+03
1.777952226E+01  2.468189697E+03
1.778970139E+01  2.466141357E+03
1.779988052E+01  2.466200684E+03
1.781005965E+01  2.464657959E+03
1.782023878E+01  2.461645020E+03
1.783041791E+01  2.459712891E+03
1.784059704E+01  2.458577881E+03
1.785077618E+01  2.461365234E+03
1.786095531E+01  2.461287354E+03
1.787113444E+01  2.458650635E+03
1.788131357E+01  2.455898438E+03
1.789149270E+01  2.454145752E+03
1.790167183E+01  2.454289307E+03
1.791185096E+01  2.453063477E+03
1.792203009E+01  2.453049805E+03
1.793220922E+01  2.452394531E+03
1.794238835E+01  2.449649414E+03
1.795256748E+01  2.447707520E+03
1.796274661E+01  2.447368408E+03
1.797292574E+01  2.446256836E+03
1.798310487E+01  2.445681641E+03
1.799328400E+01  2.446885254E+03
1.800346313E+01  2.446626709E+03
1.801364226E+01  2.444019043E+03
1.802382140E+01  2.443778076E+03
1.803400053E+01  2.445166992E+03
1.804417966E+01  2.445927490E+03
1.805435879E+01  2.449658447E+03
1.806453792E+01  2.453737549E+03
1.807471705E+01  2.458526611E+03
1.808489618E+01  2.465935791E+03
1.809507531E+01  2.471090332E+03
1.810525444E+01  2.471283447E+03
1.811543357E+01  2.471320068E+03
1.812561270E+01  2.473436768E+03
1.813579183E+01  2.473853027E+03
1.814597096E+01  2.472298340E+03
1.815615009E+01  2.468902588E+03
1.816632922E+01  2.464854248E+03
1.817650835E+01  2.457497070E+03
1.818668749E+01  2.447900146E+03
1.819686662E+01  2.441222900E+03
1.820704575E+01  2.436193115E+03
1.821722488E+01  2.431956299E+03
1.822740401E+01  2.429828613E+03
1.823758314E+01  2.427363770E+03
1.824776227E+01  2.423445068E+03
1.825794140E+01  2.420033447E+03
1.826812053E+01  2.415148438E+03
1.827829966E+01  2.412965088E+03
1.828847879E+01  2.413073242E+03
1.829865792E+01  2.413315918E+03
1.830883705E+01  2.412272949E+03
1.831901618E+01  2.411550537E+03
1.832919531E+01  2.410656494E+03
1.833937444E+01  2.410168701E+03
1.834955358E+01  2.409543701E+03
1.835973271E+01  2.407126221E+03
1.836991184E+01  2.404917725E+03
1.838009097E+01  2.402657471E+03
1.839027010E+01  2.401659668E+03
1.840044923E+01  2.398375977E+03
1.841062836E+01  2.396810303E+03
1.842080749E+01  2.398523682E+03
1.843098662E+01  2.398277588E+03
1.844116575E+01  2.396883301E+03
1.845134488E+01  2.394084961E+03
1.846152401E+01  2.392526611E+03
1.847170314E+01  2.392275635E+03
1.848188227E+01  2.390739990E+03
1.849206140E+01  2.387662842E+03
1.850224053E+01  2.385240723E+03
1.851241967E+01  2.383802002E+03
1.852259880E+01  2.383256104E+03
1.853277793E+01  2.382664062E+03
1.854295706E+01  2.384281738E+03
1.855313619E+01  2.385761475E+03
1.856331532E+01  2.383792969E+03
1.857349445E+01  2.381812744E+03
1.858367358E+01  2.380624512E+03
1.859385271E+01  2.382191162E+03
1.860403184E+01  2.382515137E+03
1.861421097E+01  2.381043701E+03
1.862439010E+01  2.380238770E+03
1.863456923E+01  2.380818359E+03
1.864474836E+01  2.380532715E+03
1.865492749E+01  2.376877686E+03
1.866510662E+01  2.373650879E+03
1.867528576E+01  2.371115234E+03
1.868546489E+01  2.369595703E+03
1.869564402E+01  2.367836914E+03
1.870582315E+01  2.369044434E+03
1.871600228E+01  2.371713867E+03
1.872618141E+01  2.373029297E+03
1.873636054E+01  2.372763184E+03
1.874653967E+01  2.372066162E+03
1.875671880E+01  2.371614746E+03
1.876689793E+01  2.372578369E+03
1.877707706E+01  2.376058350E+03
1.878725619E+01  2.378775391E+03
1.879743532E+01  2.380703369E+03
1.880761445E+01  2.381698486E+03
1.881779358E+01  2.382483154E+03
1.882797271E+01  2.382421631E+03
1.883815185E+01  2.381373291E+03
1.884833098E+01  2.383133057E+03
1.885851011E+01  2.384767822E+03
1.886868924E+01  2.383797607E+03
1.887886837E+01  2.383770752E+03
1.888904750E+01  2.385972656E+03
1.889922663E+01  2.389000732E+03
1.890940576E+01  2.388809326E+03
1.891958489E+01  2.384358154E+03
1.892976402E+01  2.380336182E+03
1.893994315E+01  2.380249756E+03
1.895012228E+01  2.379832031E+03
1.896030141E+01  2.379494873E+03
1.897048054E+01  2.378512695E+03
1.898065967E+01  2.376865234E+03
1.899083880E+01  2.374901123E+03
1.900101793E+01  2.373843994E+03
1.901119707E+01  2.371799072E+03
1.902137620E+01  2.367378174E+03
1.903155533E+01  2.363527344E+03
1.904173446E+01  2.359991455E+03
1.905191359E+01  2.358147949E+03
1.906209272E+01  2.356905518E+03
1.907227185E+01  2.355923828E+03
1.908245098E+01  2.354087646E+03
1.909263011E+01  2.354623291E+03
1.910280924E+01  2.355940186E+03
1.911298837E+01  2.353989014E+03
1.912316750E+01  2.352826172E+03
1.913334663E+01  2.351241211E+03
1.914352576E+01  2.346895752E+03
1.915370489E+01  2.343745361E+03
1.916388402E+01  2.345748535E+03
1.917406316E+01  2.346448975E+03
1.918424229E+01  2.344853027E+03
1.919442142E+01  2.343635010E+03
1.920460055E+01  2.343385742E+03
1.921477968E+01  2.341107666E+03
1.922495881E+01  2.337579102E+03
1.923513794E+01  2.333906006E+03
1.924531707E+01  2.328975586E+03
1.925549620E+01  2.327201172E+03
1.926567533E+01  2.326267578E+03
1.927585446E+01  2.324983887E+03
1.928603359E+01  2.324198486E+03
1.929621272E+01  2.325751465E+03
1.930639185E+01  2.327318115E+03
1.931657098E+01  2.326459229E+03
1.932675011E+01  2.324492188E+03
1.933692925E+01  2.322325684E+03
1.934710838E+01  2.322699707E+03
1.935728751E+01  2.323419434E+03
1.936746664E+01  2.321511719E+03
1.937764577E+01  2.315961182E+03
1.938782490E+01  2.313390381E+03
1.939800403E+01  2.313274170E+03
1.940818316E+01  2.313799561E+03
1.941836229E+01  2.315016357E+03
1.942854142E+01  2.314249756E+03
1.943872055E+01  2.312209473E+03
1.944889968E+01  2.310656006E+03
1.945907881E+01  2.311774414E+03
1.946925794E+01  2.311903320E+03
1.947943707E+01  2.311898682E+03
1.948961620E+01  2.311346924E+03
1.949979534E+01  2.308988037E+03
1.950997447E+01  2.307876221E+03
1.952015360E+01  2.308825439E+03
1.953033273E+01  2.308627441E+03
1.954051186E+01  2.305071533E+03
1.955069099E+01  2.301542480E+03
1.956087012E+01  2.301871338E+03
1.957104925E+01  2.303303223E+03
1.958122838E+01  2.304398438E+03
1.959140751E+01  2.305769043E+03
1.960158664E+01  2.307145264E+03
1.961176577E+01  2.307387451E+03
1.962194490E+01  2.308300049E+03
1.963212403E+01  2.309629150E+03
1.964230316E+01  2.311447754E+03
1.965248229E+01  2.311307129E+03
1.966266143E+01  2.310277100E+03
1.967284056E+01  2.310395264E+03
1.968301969E+01  2.309264648E+03
1.969319882E+01  2.307695801E+03
1.970337795E+01  2.306137451E+03
1.971355708E+01  2.304432617E+03
1.972373621E+01  2.301841064E+03
1.973391534E+01  2.298980469E+03
1.974409447E+01  2.296661865E+03
1.975427360E+01  2.294058105E+03
1.976445273E+01  2.291084473E+03
1.977463186E+01  2.288954590E+03
1.978481099E+01  2.290447998E+03
1.979499012E+01  2.290697021E+03
1.980516925E+01  2.289104736E+03
1.981534838E+01  2.286199219E+03
1.982552752E+01  2.285391846E+03
1.983570665E+01  2.285595215E+03
1.984588578E+01  2.286278076E+03
1.985606491E+01  2.284670654E+03
1.986624404E+01  2.282610840E+03
1.987642317E+01  2.282810303E+03
1.988660230E+01  2.281186523E+03
1.989678143E+01  2.280358154E+03
1.990696056E+01  2.280185303E+03
1.991713969E+01  2.280930664E+03
1.992731882E+01  2.281386475E+03
1.993749795E+01  2.280931396E+03
1.994767708E+01  2.279299316E+03
1.995785621E+01  2.276321289E+03
1.996803534E+01  2.276623291E+03
1.997821447E+01  2.278259521E+03
1.998839360E+01  2.277653076E+03
1.999857274E+01  2.276026611E+03
2.000875187E+01  2.275942871E+03
2.001893100E+01  2.275166504E+03
2.002911013E+01  2.274611328E+03
2.003928926E+01  2.275278076E+03
2.004946839E+01  2.273048584E+03
2.005964752E+01  2.270816406E+03
2.006982665E+01  2.269105957E+03
2.008000578E+01  2.267986572E+03
2.009018491E+01  2.267297852E+03
2.010036404E+01  2.267809814E+03
2.011054317E+01  2.268488281E+03
2.012072230E+01  2.267796875E+03
2.013090143E+01  2.265937256E+03
2.014108056E+01  2.261789795E+03
2.015125969E+01  2.258874023E+03
2.016143883E+01  2.259306152E+03
2.017161796E+01  2.260479248E+03
2.018179709E+01  2.258667480E+03
2.019197622E+01  2.255939453E+03
2.020215535E+01  2.255195801E+03
2.021233448E+01  2.255141357E+03
2.022251361E+01  2.254559814E+03
2.023269274E+01  2.253103271E+03
2.024287187E+01  2.250968750E+03
2.025305100E+01  2.248846680E+03
2.026323013E+01  2.246760010E+03
2.027340926E+01  2.245006836E+03
2.028358839E+01  2.244083984E+03
2.029376752E+01  2.245010986E+03
2.030394665E+01  2.244369629E+03
2.031412578E+01  2.243096924E+03
2.032430492E+01  2.241483154E+03
2.033448405E+01  2.239875488E+03
2.034466318E+01  2.240050537E+03
2.035484231E+01  2.241689209E+03
2.036502144E+01  2.240821045E+03
2.037520057E+01  2.238353516E+03
2.038537970E+01  2.237464600E+03
2.039555883E+01  2.235188232E+03
2.040573796E+01  2.233947021E+03
2.041591709E+01  2.234067139E+03
2.042609622E+01  2.234494141E+03
2.043627535E+01  2.232248535E+03
2.044645448E+01  2.230417725E+03
2.045663361E+01  2.231102783E+03
2.046681274E+01  2.231055176E+03
2.047699187E+01  2.232127197E+03
2.048717101E+01  2.232119629E+03
2.049735014E+01  2.230779785E+03
2.050752927E+01  2.229271240E+03
2.051770840E+01  2.227863281E+03
2.052788753E+01  2.225850342E+03
2.053806666E+01  2.224259277E+03
2.054824579E+01  2.226020752E+03
2.055842492E+01  2.228024658E+03
2.056860405E+01  2.229899658E+03
2.057878318E+01  2.229625488E+03
2.058896231E+01  2.229886475E+03
2.059914144E+01  2.232084961E+03
2.060932057E+01  2.234412354E+03
2.061949970E+01  2.235370605E+03
2.062967883E+01  2.236739014E+03
2.063985796E+01  2.238916504E+03
2.065003710E+01  2.236497314E+03
2.066021623E+01  2.232894531E+03
2.067039536E+01  2.232463135E+03
2.068057449E+01  2.232727783E+03
2.069075362E+01  2.232253906E+03
2.070093275E+01  2.229672852E+03
2.071111188E+01  2.225239746E+03
2.072129101E+01  2.221166992E+03
2.073147014E+01  2.220556396E+03
2.074164927E+01  2.218470459E+03
2.075182840E+01  2.216135986E+03
2.076200753E+01  2.215009521E+03
2.077218666E+01  2.214390625E+03
2.078236579E+01  2.212873047E+03
2.079254492E+01  2.213017334E+03
2.080272405E+01  2.214220215E+03
2.081290319E+01  2.212138184E+03
2.082308232E+01  2.210537354E+03
2.083326145E+01  2.210968018E+03
2.084344058E+01  2.209093750E+03
2.085361971E+01  2.207149170E+03
2.086379884E+01  2.205615234E+03
2.087397797E+01  2.202870605E+03
2.088415710E+01  2.199088135E+03
2.089433623E+01  2.197501465E+03
2.090451536E+01  2.195427246E+03
2.091469449E+01  2.195312744E+03
2.092487362E+01  2.197203125E+03
2.093505275E+01  2.196053955E+03
2.094523188E+01  2.193256592E+03
2.095541101E+01  2.192304443E+03
2.096559014E+01  2.192723877E+03
2.097576927E+01  2.191430420E+03
2.098594841E+01  2.189770752E+03
2.099612754E+01  2.189422852E+03
2.100630667E+01  2.189792725E+03
2.101648580E+01  2.192596191E+03
2.102666493E+01  2.191894043E+03
2.103684406E+01  2.189363037E+03
2.104702319E+01  2.188164062E+03
2.105720232E+01  2.186593750E+03
2.106738145E+01  2.184343262E+03
2.107756058E+01  2.182844971E+03
2.108773971E+01  2.184955078E+03
2.109791884E+01  2.187049072E+03
2.110809797E+01  2.187903076E+03
2.111827710E+01  2.187378662E+03
2.112845623E+01  2.184021729E+03
2.113863536E+01  2.179610596E+03
2.114881450E+01  2.177711426E+03
2.115899363E+01  2.177514893E+03
2.116917276E+01  2.176821289E+03
2.117935189E+01  2.176094971E+03
2.118953102E+01  2.174227295E+03
2.119971015E+01  2.174066895E+03
2.120988928E+01  2.174396484E+03
2.122006841E+01  2.171719238E+03
2.123024754E+01  2.171692383E+03
2.124042667E+01  2.173648926E+03
2.125060580E+01  2.175030518E+03
2.126078493E+01  2.174304443E+03
2.127096406E+01  2.173185547E+03
2.128114319E+01  2.170886475E+03
2.129132232E+01  2.169054199E+03
2.130150145E+01  2.167229004E+03
2.131168059E+01  2.164165771E+03
2.132185972E+01  2.162880127E+03
2.133203885E+01  2.162950684E+03
2.134221798E+01  2.163491699E+03
2.135239711E+01  2.164008057E+03
2.136257624E+01  2.164452637E+03
2.137275537E+01  2.164513184E+03
2.138293450E+01  2.162683105E+03
2.139311363E+01  2.161868652E+03
2.140329276E+01  2.160990723E+03
2.141347189E+01  2.160670654E+03
2.142365102E+01  2.161985107E+03
2.143383015E+01  2.161981445E+03
2.144400928E+01  2.159120117E+03
2.145418841E+01  2.157678711E+03
2.146436754E+01  2.158672607E+03
2.147454668E+01  2.157037109E+03
2.148472581E+01  2.155291016E+03
2.149490494E+01  2.155905273E+03
2.150508407E+01  2.157417969E+03
2.151526320E+01  2.159026367E+03
2.152544233E+01  2.157514404E+03
2.153562146E+01  2.154289307E+03
2.154580059E+01  2.151292725E+03
2.155597972E+01  2.150054688E+03
2.156615885E+01  2.148877686E+03
2.157633798E+01  2.147852539E+03
2.158651711E+01  2.148114014E+03
2.159669624E+01  2.146625000E+03
2.160687537E+01  2.145453857E+03
2.161705450E+01  2.146911865E+03
2.162723363E+01  2.148470459E+03
2.163741277E+01  2.149286133E+03
2.164759190E+01  2.149056885E+03
2.165777103E+01  2.145731689E+03
2.166795016E+01  2.142930908E+03
2.167812929E+01  2.144403809E+03
2.168830842E+01  2.144960205E+03
2.169848755E+01  2.144870117E+03
2.170866668E+01  2.145168701E+03
2.171884581E+01  2.145168457E+03
2.172902494E+01  2.143764404E+03
2.173920407E+01  2.141385986E+03
2.174938320E+01  2.139891357E+03
2.175956233E+01  2.139325928E+03
2.176974146E+01  2.138843506E+03
2.177992059E+01  2.137292969E+03
2.179009972E+01  2.136951660E+03
2.180027886E+01  2.138488770E+03
2.181045799E+01  2.139018066E+03
2.182063712E+01  2.139114258E+03
2.183081625E+01  2.139865967E+03
2.184099538E+01  2.140515137E+03
2.185117451E+01  2.139552002E+03
2.186135364E+01  2.137708984E+03
2.187153277E+01  2.135735352E+03
2.188171190E+01  2.133079102E+03
2.189189103E+01  2.132643799E+03
2.190207016E+01  2.131577393E+03
2.191224929E+01  2.129393311E+03
2.192242842E+01  2.128548096E+03
2.193260755E+01  2.129593994E+03
2.194278668E+01  2.130140381E+03
2.195296581E+01  2.128672363E+03
2.196314495E+01  2.128190186E+03
2.197332408E+01  2.128626709E+03
2.198350321E+01  2.129160889E+03
2.199368234E+01  2.131779785E+03
2.200386147E+01  2.132406738E+03
2.201404060E+01  2.130235840E+03
2.202421973E+01  2.128749268E+03
2.203439886E+01  2.125542480E+03
2.204457799E+01  2.123780518E+03
2.205475712E+01  2.125326172E+03
2.206493625E+01  2.124666260E+03
2.207511538E+01  2.124757324E+03
2.208529451E+01  2.126949219E+03
2.209547364E+01  2.125259521E+03
2.210565277E+01  2.123885498E+03
2.211583190E+01  2.125126465E+03
2.212601103E+01  2.124445801E+03
2.213619017E+01  2.122718018E+03
2.214636930E+01  2.120538574E+03
2.215654843E+01  2.119031250E+03
2.216672756E+01  2.120063721E+03
2.217690669E+01  2.121590332E+03
2.218708582E+01  2.118945557E+03
2.219726495E+01  2.116363525E+03
2.220744408E+01  2.116644043E+03
2.221762321E+01  2.116348633E+03
2.222780234E+01  2.115544434E+03
2.223798147E+01  2.115911865E+03
2.224816060E+01  2.115369141E+03
2.225833973E+01  2.113157959E+03
2.226851886E+01  2.110929443E+03
2.227869799E+01  2.108591064E+03
2.228887712E+01  2.106979492E+03
2.229905626E+01  2.106311035E+03
2.230923539E+01  2.103751465E+03
2.231941452E+01  2.102664062E+03
2.232959365E+01  2.103243896E+03
2.233977278E+01  2.102871826E+03
2.234995191E+01  2.102222900E+03
2.236013104E+01  2.101739258E+03
2.237031017E+01  2.101657227E+03
2.238048930E+01  2.101222656E+03
2.239066843E+01  2.098459717E+03
2.240084756E+01  2.094919678E+03
2.241102669E+01  2.093682373E+03
2.242120582E+01  2.095480713E+03
2.243138495E+01  2.095459717E+03
2.244156408E+01  2.095523438E+03
2.245174321E+01  2.097295166E+03
2.246192235E+01  2.097873291E+03
2.247210148E+01  2.096103760E+03
2.248228061E+01  2.092994873E+03
2.249245974E+01  2.093832764E+03
2.250263887E+01  2.096862305E+03
2.251281800E+01  2.098421875E+03
2.252299713E+01  2.095878906E+03
2.253317626E+01  2.091789795E+03
2.254335539E+01  2.091139893E+03
2.255353452E+01  2.091852783E+03
2.256371365E+01  2.092358643E+03
2.257389278E+01  2.092755371E+03
2.258407191E+01  2.093455322E+03
2.259425104E+01  2.092294434E+03
2.260443017E+01  2.090403564E+03
2.261460930E+01  2.090112793E+03
2.262478844E+01  2.089719727E+03
2.263496757E+01  2.089142090E+03
2.264514670E+01  2.088674072E+03
2.265532583E+01  2.087139404E+03
2.266550496E+01  2.085916016E+03
2.267568409E+01  2.085679688E+03
2.268586322E+01  2.085665771E+03
2.269604235E+01  2.085250488E+03
2.270622148E+01  2.084411133E+03
2.271640061E+01  2.083217529E+03
2.272657974E+01  2.082960449E+03
2.273675887E+01  2.083060791E+03
2.274693800E+01  2.081274902E+03
2.275711713E+01  2.079517334E+03
2.276729626E+01  2.079148193E+03
2.277747539E+01  2.079590820E+03
2.278765453E+01  2.080168457E+03
2.279783366E+01  2.078455078E+03
2.280801279E+01  2.078354004E+03
2.281819192E+01  2.080130615E+03
2.282837105E+01  2.079495361E+03
2.283855018E+01  2.077253906E+03
2.284872931E+01  2.077047852E+03
2.285890844E+01  2.079133301E+03
2.286908757E+01  2.079762695E+03
2.287926670E+01  2.078402832E+03
2.288944583E+01  2.075712402E+03
2.289962496E+01  2.074192383E+03
2.290980409E+01  2.074507080E+03
2.291998322E+01  2.074671631E+03
2.293016235E+01  2.073051270E+03
2.294034148E+01  2.071983154E+03
2.295052062E+01  2.073155029E+03
2.296069975E+01  2.071803223E+03
2.297087888E+01  2.071493164E+03
2.298105801E+01  2.074247070E+03
2.299123714E+01  2.074997559E+03
2.300141627E+01  2.072723633E+03
2.301159540E+01  2.069055664E+03
2.302177453E+01  2.068361572E+03
2.303195366E+01  2.069483398E+03
2.304213279E+01  2.069855469E+03
2.305231192E+01  2.069308350E+03
2.306249105E+01  2.068587402E+03
2.307267018E+01  2.070042969E+03
2.308284931E+01  2.070769043E+03
2.309302844E+01  2.070587646E+03
2.310320757E+01  2.072322510E+03
2.311338670E+01  2.072523438E+03
2.312356584E+01  2.070599121E+03
2.313374497E+01  2.071139160E+03
2.314392410E+01  2.072596680E+03
2.315410323E+01  2.072856934E+03
2.316428236E+01  2.072636475E+03
2.317446149E+01  2.072198486E+03
2.318464062E+01  2.072328857E+03
2.319481975E+01  2.071421143E+03
2.320499888E+01  2.069990723E+03
2.321517801E+01  2.071075928E+03
2.322535714E+01  2.073435059E+03
2.323553627E+01  2.073879395E+03
2.324571540E+01  2.073569092E+03
2.325589453E+01  2.074122803E+03
2.326607366E+01  2.076107178E+03
2.327625279E+01  2.076115234E+03
2.328643193E+01  2.074439697E+03
2.329661106E+01  2.072536133E+03
2.330679019E+01  2.071154785E+03
2.331696932E+01  2.071959961E+03
2.332714845E+01  2.072523193E+03
2.333732758E+01  2.070786133E+03
2.334750671E+01  2.070791992E+03
2.335768584E+01  2.072849854E+03
2.336786497E+01  2.075608643E+03
2.337804410E+01  2.076026123E+03
2.338822323E+01  2.076361572E+03
2.339840236E+01  2.077962891E+03
2.340858149E+01  2.079798828E+03
2.341876062E+01  2.083047119E+03
2.342893975E+01  2.087780518E+03
2.343911888E+01  2.093920654E+03
2.344929802E+01  2.099469971E+03
2.345947715E+01  2.102323242E+03
2.346965628E+01  2.105149658E+03
2.347983541E+01  2.106678223E+03
2.349001454E+01  2.105641113E+03
2.350019367E+01  2.104344238E+03
2.351037280E+01  2.103659180E+03
2.352055193E+01  2.102919189E+03
2.353073106E+01  2.102509033E+03
2.354091019E+01  2.099141846E+03
2.355108932E+01  2.094108398E+03
2.356126845E+01  2.091387451E+03
2.357144758E+01  2.088738281E+03
2.358162671E+01  2.083207031E+03
2.359180584E+01  2.079491943E+03
2.360198497E+01  2.076995117E+03
2.361216411E+01  2.073109619E+03
2.362234324E+01  2.070244873E+03
2.363252237E+01  2.070038086E+03
2.364270150E+01  2.070027344E+03
2.365288063E+01  2.067231934E+03
2.366305976E+01  2.063739014E+03
2.367323889E+01  2.062049561E+03
2.368341802E+01  2.061304932E+03
2.369359715E+01  2.057077148E+03
2.370377628E+01  2.052335205E+03
2.371395541E+01  2.052280029E+03
2.372413454E+01  2.051802490E+03
2.373431367E+01  2.048397949E+03
2.374449280E+01  2.045122803E+03
2.375467193E+01  2.041574463E+03
2.376485106E+01  2.039765259E+03
2.377503020E+01  2.037575073E+03
2.378520933E+01  2.033844727E+03
2.379538846E+01  2.032354980E+03
2.380556759E+01  2.031998413E+03
2.381574672E+01  2.029292847E+03
2.382592585E+01  2.027068848E+03
2.383610498E+01  2.025531860E+03
2.384628411E+01  2.024351685E+03
2.385646324E+01  2.024207153E+03
2.386664237E+01  2.024324219E+03
2.387682150E+01  2.023540161E+03
2.388700063E+01  2.023344116E+03
2.389717976E+01  2.022823608E+03
2.390735889E+01  2.021879272E+03
2.391753802E+01  2.020774536E+03
2.392771715E+01  2.018373169E+03
2.393789629E+01  2.017321533E+03
2.394807542E+01  2.017125122E+03
2.395825455E+01  2.016208618E+03
2.396843368E+01  2.015106812E+03
2.397861281E+01  2.014693848E+03
2.398879194E+01  2.016658447E+03
2.399897107E+01  2.016707764E+03
2.400915020E+01  2.015429077E+03
2.401932933E+01  2.014293091E+03
2.402950846E+01  2.014661621E+03
2.403968759E+01  2.016321655E+03
2.404986672E+01  2.016762573E+03
2.406004585E+01  2.016551880E+03
2.407022498E+01  2.016076904E+03
2.408040411E+01  2.015370605E+03
2.409058324E+01  2.015442017E+03
2.410076237E+01  2.015994751E+03
2.411094151E+01  2.016691650E+03
2.412112064E+01  2.017437866E+03
2.413129977E+01  2.017571289E+03
2.414147890E+01  2.014956909E+03
2.415165803E+01  2.011541992E+03
2.416183716E+01  2.011694092E+03
2.417201629E+01  2.013289551E+03
2.418219542E+01  2.015248291E+03
2.419237455E+01  2.015349121E+03
2.420255368E+01  2.013416626E+03
2.421273281E+01  2.011408081E+03
2.422291194E+01  2.011056274E+03
2.423309107E+01  2.012288330E+03
2.424327020E+01  2.013448364E+03
2.425344933E+01  2.012604736E+03
2.426362846E+01  2.010927979E+03
2.427380760E+01  2.010713745E+03
2.428398673E+01  2.011148071E+03
2.429416586E+01  2.009658569E+03
2.430434499E+01  2.009281982E+03
2.431452412E+01  2.010512939E+03
2.432470325E+01  2.010109131E+03
2.433488238E+01  2.010440674E+03
2.434506151E+01  2.012144653E+03
2.435524064E+01  2.013039673E+03
2.436541977E+01  2.012367554E+03
2.437559890E+01  2.012011353E+03
2.438577803E+01  2.012701050E+03
2.439595716E+01  2.011375854E+03
2.440613629E+01  2.009383667E+03
2.441631542E+01  2.009327271E+03
2.442649455E+01  2.009777710E+03
2.443667369E+01  2.011044312E+03
2.444685282E+01  2.011758667E+03
2.445703195E+01  2.011448364E+03
2.446721108E+01  2.010005127E+03
2.447739021E+01  2.005952637E+03
2.448756934E+01  2.003783325E+03
2.449774847E+01  2.004941284E+03
2.450792760E+01  2.005301636E+03
2.451810673E+01  2.003019653E+03
2.452828586E+01  1.999306641E+03
2.453846499E+01  1.997471558E+03
2.454864412E+01  1.997479004E+03
2.455882325E+01  1.995318359E+03
2.456900238E+01  1.992558472E+03
2.457918151E+01  1.991996094E+03
2.458936064E+01  1.991708740E+03
2.459953978E+01  1.989356079E+03
2.460971891E+01  1.985908203E+03
2.461989804E+01  1.984308716E+03
2.463007717E+01  1.982827759E+03
2.464025630E+01  1.981442749E+03
2.465043543E+01  1.978546631E+03
2.466061456E+01  1.975645752E+03
2.467079369E+01  1.974481079E+03
2.468097282E+01  1.973972900E+03
2.469115195E+01  1.974250488E+03
2.470133108E+01  1.972447632E+03
2.471151021E+01  1.970149902E+03
2.472168934E+01  1.969409424E+03
2.473186847E+01  1.968919067E+03
2.474204760E+01  1.966847412E+03
2.475222673E+01  1.964122192E+03
2.476240587E+01  1.962612793E+03
2.477258500E+01  1.961736694E+03
2.478276413E+01  1.959787476E+03
2.479294326E+01  1.958731323E+03
2.480312239E+01  1.957148071E+03
2.481330152E+01  1.955386719E+03
2.482348065E+01  1.954921387E+03
2.483365978E+01  1.954013306E+03
2.484383891E+01  1.953596069E+03
2.485401804E+01  1.953368286E+03
2.486419717E+01  1.952219116E+03
2.487437630E+01  1.952426270E+03
2.488455543E+01  1.952667480E+03
2.489473456E+01  1.951022583E+03
2.490491369E+01  1.949966675E+03
2.491509282E+01  1.949318359E+03
2.492527196E+01  1.947721802E+03
2.493545109E+01  1.945477539E+03
2.494563022E+01  1.943712036E+03
2.495580935E+01  1.942688721E+03
2.496598848E+01  1.941699829E+03
2.497616761E+01  1.942881226E+03
2.498634674E+01  1.943124756E+03
2.499652587E+01  1.942535034E+03
2.500670500E+01  1.941984009E+03
2.501688413E+01  1.940851562E+03
2.502706326E+01  1.940111084E+03
2.503724239E+01  1.940307251E+03
2.504742152E+01  1.940337891E+03
2.505760065E+01  1.940333008E+03
2.506777978E+01  1.939764404E+03
2.507795891E+01  1.936901367E+03
2.508813804E+01  1.935419922E+03
2.509831718E+01  1.935102173E+03
2.510849631E+01  1.935429565E+03
2.511867544E+01  1.935729858E+03
2.512885457E+01  1.934458496E+03
2.513903370E+01  1.931402222E+03
2.514921283E+01  1.929211792E+03
2.515939196E+01  1.927807251E+03
2.516957109E+01  1.928752686E+03
2.517975022E+01  1.930417114E+03
2.518992935E+01  1.930472900E+03
2.520010848E+01  1.930265625E+03
2.521028761E+01  1.931547241E+03
2.522046674E+01  1.931674438E+03
2.523064587E+01  1.928947510E+03
2.524082500E+01  1.927140137E+03
2.525100413E+01  1.926845093E+03
2.526118327E+01  1.925400391E+03
2.527136240E+01  1.923891235E+03
2.528154153E+01  1.922999512E+03
2.529172066E+01  1.922312500E+03
2.530189979E+01  1.921564087E+03
2.531207892E+01  1.920571045E+03
2.532225805E+01  1.917987305E+03
2.533243718E+01  1.915578369E+03
2.534261631E+01  1.914354370E+03
2.535279544E+01  1.915416626E+03
2.536297457E+01  1.916887329E+03
2.537315370E+01  1.915954468E+03
2.538333283E+01  1.914662231E+03
2.539351196E+01  1.913206665E+03
2.540369109E+01  1.911408936E+03
2.541387022E+01  1.910916382E+03
2.542404936E+01  1.911412720E+03
2.543422849E+01  1.911713867E+03
2.544440762E+01  1.910877197E+03
2.545458675E+01  1.910556274E+03
2.546476588E+01  1.909489258E+03
2.547494501E+01  1.907560181E+03
2.548512414E+01  1.907057861E+03
2.549530327E+01  1.905389282E+03
2.550548240E+01  1.903706177E+03
2.551566153E+01  1.903533081E+03
2.552584066E+01  1.903879272E+03
2.553601979E+01  1.904789062E+03
2.554619892E+01  1.903036987E+03
2.555637805E+01  1.900723755E+03
2.556655718E+01  1.899911255E+03
2.557673631E+01  1.898798950E+03
2.558691545E+01  1.897000366E+03
2.559709458E+01  1.896562500E+03
2.560727371E+01  1.895564697E+03
2.561745284E+01  1.894670776E+03
2.562763197E+01  1.894864258E+03
2.563781110E+01  1.894281006E+03
2.564799023E+01  1.894217773E+03
2.565816936E+01  1.894698364E+03
2.566834849E+01  1.893647583E+03
2.567852762E+01  1.893152588E+03
2.568870675E+01  1.893884399E+03
2.569888588E+01  1.893635742E+03
2.570906501E+01  1.893494873E+03
2.571924414E+01  1.892529541E+03
2.572942327E+01  1.890353027E+03
2.573960240E+01  1.889120850E+03
2.574978154E+01  1.888949219E+03
2.575996067E+01  1.888360474E+03
2.577013980E+01  1.887111938E+03
2.578031893E+01  1.885348022E+03
2.579049806E+01  1.883593628E+03
2.580067719E+01  1.883183105E+03
2.581085632E+01  1.881934326E+03
2.582103545E+01  1.881570312E+03
2.583121458E+01  1.882432861E+03
2.584139371E+01  1.882039917E+03
2.585157284E+01  1.880566772E+03
2.586175197E+01  1.879537231E+03
2.587193110E+01  1.879582764E+03
2.588211023E+01  1.880623047E+03
2.589228936E+01  1.880480469E+03
2.590246849E+01  1.879144775E+03
2.591264763E+01  1.878906982E+03
2.592282676E+01  1.878905518E+03
2.593300589E+01  1.877632446E+03
2.594318502E+01  1.877011108E+03
2.595336415E+01  1.876850464E+03
2.596354328E+01  1.876035522E+03
2.597372241E+01  1.874801147E+03
2.598390154E+01  1.872638916E+03
2.599408067E+01  1.870605835E+03
2.600425980E+01  1.871242310E+03
2.601443893E+01  1.872821045E+03
2.602461806E+01  1.872681274E+03
2.603479719E+01  1.872634521E+03
2.604497632E+01  1.871820190E+03
2.605515545E+01  1.870506470E+03
2.606533458E+01  1.871568115E+03
2.607551372E+01  1.870844482E+03
2.608569285E+01  1.867568115E+03
2.609587198E+01  1.865586792E+03
2.610605111E+01  1.865182007E+03
2.611623024E+01  1.864864502E+03
2.612640937E+01  1.865529907E+03
2.613658850E+01  1.865999878E+03
2.614676763E+01  1.865391968E+03
2.615694676E+01  1.865253174E+03
2.616712589E+01  1.865022217E+03
2.617730502E+01  1.864071655E+03
2.618748415E+01  1.863492676E+03
2.619766328E+01  1.863692017E+03
2.620784241E+01  1.863177368E+03
2.621802154E+01  1.861681152E+03
2.622820067E+01  1.859156250E+03
2.623837980E+01  1.857368774E+03
2.624855894E+01  1.856958252E+03
2.625873807E+01  1.857767090E+03
2.626891720E+01  1.859215820E+03
2.627909633E+01  1.860392700E+03
2.628927546E+01  1.860394775E+03
2.629945459E+01  1.859077271E+03
2.630963372E+01  1.857810913E+03
2.631981285E+01  1.856819214E+03
2.632999198E+01  1.854895752E+03
2.634017111E+01  1.852992798E+03
2.635035024E+01  1.851668823E+03
2.636052937E+01  1.850538208E+03
2.637070850E+01  1.850398071E+03
2.638088763E+01  1.852281128E+03
2.639106676E+01  1.852854614E+03
2.640124589E+01  1.851854248E+03
2.641142503E+01  1.851758179E+03
2.642160416E+01  1.850717896E+03
2.643178329E+01  1.849393311E+03
2.644196242E+01  1.848651245E+03
2.645214155E+01  1.848487793E+03
2.646232068E+01  1.848520508E+03
2.647249981E+01  1.847319946E+03
2.648267894E+01  1.844596924E+03
2.649285807E+01  1.842925659E+03
2.650303720E+01  1.843825073E+03
2.651321633E+01  1.844953613E+03
2.652339546E+01  1.845441650E+03
2.653357459E+01  1.845068848E+03
2.654375372E+01  1.843998779E+03
2.655393285E+01  1.841871704E+03
2.656411198E+01  1.840935303E+03
2.657429112E+01  1.840725952E+03
2.658447025E+01  1.840415405E+03
2.659464938E+01  1.839338989E+03
2.660482851E+01  1.838026123E+03
2.661500764E+01  1.838131836E+03
2.662518677E+01  1.836517822E+03
2.663536590E+01  1.835181396E+03
2.664554503E+01  1.836266846E+03
2.665572416E+01  1.835288086E+03
2.666590329E+01  1.834091064E+03
2.667608242E+01  1.833301147E+03
2.668626155E+01  1.832326782E+03
2.669644068E+01  1.831930298E+03
2.670661981E+01  1.831026367E+03
2.671679894E+01  1.829883789E+03
2.672697807E+01  1.830545044E+03
2.673715721E+01  1.830420166E+03
2.674733634E+01  1.830371094E+03
2.675751547E+01  1.832255859E+03
2.676769460E+01  1.831975220E+03
2.677787373E+01  1.829946899E+03
2.678805286E+01  1.828561768E+03
2.679823199E+01  1.827204956E+03
2.680841112E+01  1.824989502E+03
2.681859025E+01  1.823770874E+03
2.682876938E+01  1.824573486E+03
2.683894851E+01  1.824783203E+03
2.684912764E+01  1.824421509E+03
2.685930677E+01  1.824880249E+03
2.686948590E+01  1.826367432E+03
2.687966503E+01  1.826703979E+03
2.688984416E+01  1.825617310E+03
2.690002330E+01  1.825698730E+03
2.691020243E+01  1.825328369E+03
2.692038156E+01  1.823231934E+03
2.693056069E+01  1.822792114E+03
2.694073982E+01  1.821954468E+03
2.695091895E+01  1.820999390E+03
2.696109808E+01  1.821960449E+03
2.697127721E+01  1.822246704E+03
2.698145634E+01  1.822258057E+03
2.699163547E+01  1.822860840E+03
2.700181460E+01  1.822355347E+03
2.701199373E+01  1.820376831E+03
2.702217286E+01  1.818206909E+03
2.703235199E+01  1.815862061E+03
2.704253112E+01  1.815548096E+03
2.705271025E+01  1.815092407E+03
2.706288939E+01  1.814587280E+03
2.707306852E+01  1.814960449E+03
2.708324765E+01  1.814692383E+03
2.709342678E+01  1.814619751E+03
2.710360591E+01  1.814444702E+03
2.711378504E+01  1.812470947E+03
2.712396417E+01  1.811725342E+03
2.713414330E+01  1.812844116E+03
2.714432243E+01  1.814354614E+03
2.715450156E+01  1.815006836E+03
2.716468069E+01  1.814774902E+03
2.717485982E+01  1.813698364E+03
2.718503895E+01  1.812160156E+03
2.719521808E+01  1.811926636E+03
2.720539721E+01  1.812364258E+03
2.721557634E+01  1.812135132E+03
2.722575547E+01  1.811793945E+03
2.723593461E+01  1.810723633E+03
2.724611374E+01  1.807669678E+03
2.725629287E+01  1.806988037E+03
2.726647200E+01  1.807030640E+03
2.727665113E+01  1.805833618E+03
2.728683026E+01  1.804512695E+03
2.729700939E+01  1.804218994E+03
2.730718852E+01  1.803939575E+03
2.731736765E+01  1.803547363E+03
2.732754678E+01  1.805660522E+03
2.733772591E+01  1.808398560E+03
2.734790504E+01  1.808275024E+03
2.735808417E+01  1.806849609E+03
2.736826330E+01  1.805377075E+03
2.737844243E+01  1.803512817E+03
2.738862156E+01  1.804021484E+03
2.739880070E+01  1.805430664E+03
2.740897983E+01  1.804875244E+03
2.741915896E+01  1.804320923E+03
2.742933809E+01  1.803732300E+03
2.743951722E+01  1.803906616E+03
2.744969635E+01  1.806300903E+03
2.745987548E+01  1.808161133E+03
2.747005461E+01  1.808498413E+03
2.748023374E+01  1.808289551E+03
2.749041287E+01  1.806836914E+03
2.750059200E+01  1.806182739E+03
2.751077113E+01  1.807226318E+03
2.752095026E+01  1.808357178E+03
2.753112939E+01  1.809652832E+03
2.754130852E+01  1.811613525E+03
2.755148765E+01  1.813510498E+03
2.756166679E+01  1.814536499E+03
2.757184592E+01  1.813290527E+03
2.758202505E+01  1.813262085E+03
2.759220418E+01  1.816824463E+03
2.760238331E+01  1.820386108E+03
2.761256244E+01  1.822815674E+03
2.762274157E+01  1.824145142E+03
2.763292070E+01  1.825247437E+03
2.764309983E+01  1.826367432E+03
2.765327896E+01  1.827938477E+03
2.766345809E+01  1.831537964E+03
2.767363722E+01  1.835973877E+03
2.768381635E+01  1.837131104E+03
2.769399548E+01  1.837442139E+03
2.770417461E+01  1.841328003E+03
2.771435374E+01  1.844804565E+03
2.772453288E+01  1.847192139E+03
2.773471201E+01  1.850278809E+03
2.774489114E+01  1.853250366E+03
2.775507027E+01  1.855286011E+03
2.776524940E+01  1.856885376E+03
2.777542853E+01  1.858696167E+03
2.778560766E+01  1.861577271E+03
2.779578679E+01  1.862464722E+03
2.780596592E+01  1.862811768E+03
2.781614505E+01  1.865002075E+03
2.782632418E+01  1.866516357E+03
2.783650331E+01  1.867856079E+03
2.784668244E+01  1.869009521E+03
2.785686157E+01  1.868703125E+03
2.786704070E+01  1.866432617E+03
2.787721983E+01  1.863360474E+03
2.788739897E+01  1.860315308E+03
2.789757810E+01  1.858078369E+03
2.790775723E+01  1.856795410E+03
2.791793636E+01  1.854778320E+03
2.792811549E+01  1.852871216E+03
2.793829462E+01  1.851297974E+03
2.794847375E+01  1.849256470E+03
2.795865288E+01  1.846552856E+03
2.796883201E+01  1.844032715E+03
2.797901114E+01  1.841026489E+03
2.798919027E+01  1.836215332E+03
2.799936940E+01  1.831978760E+03
2.800954853E+01  1.828253052E+03
2.801972766E+01  1.824172485E+03
2.802990679E+01  1.820000610E+03
2.804008592E+01  1.817935059E+03
2.805026506E+01  1.815643188E+03
2.806044419E+01  1.813274170E+03
2.807062332E+01  1.811673950E+03
2.808080245E+01  1.808712769E+03
2.809098158E+01  1.804168091E+03
2.810116071E+01  1.800646362E+03
2.811133984E+01  1.798061890E+03
2.812151897E+01  1.796359741E+03
2.813169810E+01  1.793417236E+03
2.814187723E+01  1.786711914E+03
2.815205636E+01  1.783429810E+03
2.816223549E+01  1.784991455E+03
2.817241462E+01  1.784744507E+03
2.818259375E+01  1.781639893E+03
2.819277288E+01  1.778743164E+03
2.820295201E+01  1.775950684E+03
2.821313114E+01  1.773238281E+03
2.822331028E+01  1.772494873E+03
2.823348941E+01  1.772225708E+03
2.824366854E+01  1.770991943E+03
2.825384767E+01  1.769304932E+03
2.826402680E+01  1.767310181E+03
2.827420593E+01  1.765859497E+03
2.828438506E+01  1.762317749E+03
2.829456419E+01  1.760336182E+03
2.830474332E+01  1.759346191E+03
2.831492245E+01  1.757296387E+03
2.832510158E+01  1.755518555E+03
2.833528071E+01  1.754354980E+03
2.834545984E+01  1.754152954E+03
2.835563897E+01  1.753557739E+03
2.836581810E+01  1.752114624E+03
2.837599723E+01  1.751248047E+03
2.838617637E+01  1.751707886E+03
2.839635550E+01  1.751716309E+03
2.840653463E+01  1.750944214E+03
2.841671376E+01  1.751093018E+03
2.842689289E+01  1.751399292E+03
2.843707202E+01  1.749563477E+03
2.844725115E+01  1.748501831E+03
2.845743028E+01  1.747552856E+03
2.846760941E+01  1.745838501E+03
2.847778854E+01  1.742787231E+03
2.848796767E+01  1.740856567E+03
2.849814680E+01  1.739026489E+03
2.850832593E+01  1.738812256E+03
2.851850506E+01  1.741616211E+03
2.852868419E+01  1.742568481E+03
2.853886332E+01  1.740915894E+03
2.854904246E+01  1.739628052E+03
2.855922159E+01  1.739413818E+03
2.856940072E+01  1.738232056E+03
2.857957985E+01  1.736183838E+03
2.858975898E+01  1.734264282E+03
2.859993811E+01  1.734316528E+03
2.861011724E+01  1.734720337E+03
2.862029637E+01  1.733783813E+03
2.863047550E+01  1.733359375E+03
2.864065463E+01  1.733298584E+03
2.865083376E+01  1.732224243E+03
2.866101289E+01  1.731647217E+03
2.867119202E+01  1.731088135E+03
2.868137115E+01  1.731285767E+03
2.869155028E+01  1.732235840E+03
2.870172941E+01  1.731924561E+03
2.871190855E+01  1.731357544E+03
2.872208768E+01  1.730151978E+03
2.873226681E+01  1.727822266E+03
2.874244594E+01  1.726369751E+03
2.875262507E+01  1.725736328E+03
2.876280420E+01  1.725445923E+03
2.877298333E+01  1.724990479E+03
2.878316246E+01  1.724767578E+03
2.879334159E+01  1.723330933E+03
2.880352072E+01  1.720882324E+03
2.881369985E+01  1.719007080E+03
2.882387898E+01  1.718113770E+03
2.883405811E+01  1.717468140E+03
2.884423724E+01  1.717182739E+03
2.885441637E+01  1.716823608E+03
2.886459550E+01  1.715447388E+03
2.887477464E+01  1.712218140E+03
2.888495377E+01  1.709849121E+03
2.889513290E+01  1.708633545E+03
2.890531203E+01  1.708229370E+03
2.891549116E+01  1.706812500E+03
2.892567029E+01  1.704040894E+03
2.893584942E+01  1.701361328E+03
2.894602855E+01  1.697867065E+03
2.895620768E+01  1.695049316E+03
2.896638681E+01  1.692658203E+03
2.897656594E+01  1.687765503E+03
2.898674507E+01  1.682045288E+03
2.899692420E+01  1.678061890E+03
2.900710333E+01  1.674335449E+03
2.901728246E+01  1.669616577E+03
2.902746159E+01  1.665634521E+03
2.903764073E+01  1.660937256E+03
2.904781986E+01  1.655900391E+03
2.905799899E+01  1.651079956E+03
2.906817812E+01  1.646092896E+03
2.907835725E+01  1.642197998E+03
2.908853638E+01  1.637167358E+03
2.909871551E+01  1.631221191E+03
2.910889464E+01  1.624840576E+03
2.911907377E+01  1.619310303E+03
2.912925290E+01  1.614135864E+03
2.913943203E+01  1.609353149E+03
2.914961116E+01  1.603912109E+03
2.915979029E+01  1.598718628E+03
2.916996942E+01  1.593094727E+03
2.918014855E+01  1.588345459E+03
2.919032768E+01  1.582829468E+03
2.920050681E+01  1.576574463E+03
2.921068595E+01  1.570770630E+03
2.922086508E+01  1.563683105E+03
2.923104421E+01  1.556745728E+03
2.924122334E+01  1.551146118E+03
2.925140247E+01  1.545594238E+03
2.926158160E+01  1.538689575E+03
2.927176073E+01  1.531879639E+03
2.928193986E+01  1.525562866E+03
2.929211899E+01  1.520937988E+03
2.930229812E+01  1.515818604E+03
2.931247725E+01  1.508808594E+03
2.932265638E+01  1.502370972E+03
2.933283551E+01  1.496227783E+03
2.934301464E+01  1.489628174E+03
2.935319377E+01  1.482858154E+03
2.936337290E+01  1.476547241E+03
2.937355204E+01  1.469869873E+03
2.938373117E+01  1.462748169E+03
2.939391030E+01  1.456358398E+03
2.940408943E+01  1.450658447E+03
2.941426856E+01  1.443970703E+03
2.942444769E+01  1.437521606E+03
2.943462682E+01  1.432112427E+03
2.944480595E+01  1.425146729E+03
2.945498508E+01  1.418845947E+03
2.946516421E+01  1.413963867E+03
2.947534334E+01  1.408322754E+03
2.948552247E+01  1.401383667E+03
2.949570160E+01  1.393509399E+03
2.950588073E+01  1.386340942E+03
2.951605986E+01  1.381151978E+03
2.952623899E+01  1.376472534E+03
2.953641813E+01  1.369874023E+03
2.954659726E+01  1.362664917E+03
2.955677639E+01  1.355194580E+03
2.956695552E+01  1.347393677E+03
2.957713465E+01  1.341955811E+03
2.958731378E+01  1.336951660E+03
2.959749291E+01  1.332491943E+03
2.960767204E+01  1.327744385E+03
2.961785117E+01  1.319763672E+03
2.962803030E+01  1.312772949E+03
2.963820943E+01  1.307457031E+03
2.964838856E+01  1.300916260E+03
2.965856769E+01  1.294991943E+03
2.966874682E+01  1.290376587E+03
2.967892595E+01  1.283984863E+03
2.968910508E+01  1.278182495E+03
2.969928422E+01  1.274669312E+03
2.970946335E+01  1.270912842E+03
2.971964248E+01  1.265946045E+03
2.972982161E+01  1.261024048E+03
2.974000074E+01  1.256535278E+03
2.975017987E+01  1.251466675E+03
2.976035900E+01  1.246129272E+03
2.977053813E+01  1.242002563E+03
2.978071726E+01  1.236504028E+03
2.979089639E+01  1.231334106E+03
2.980107552E+01  1.227733887E+03
2.981125465E+01  1.222795288E+03
2.982143378E+01  1.220545898E+03
2.983161291E+01  1.218966675E+03
2.984179204E+01  1.213846558E+03
2.985197117E+01  1.208375000E+03
2.986215031E+01  1.205047607E+03
2.987232944E+01  1.202655762E+03
2.988250857E+01  1.199177734E+03
2.989268770E+01  1.193784912E+03
2.990286683E+01  1.188940552E+03
2.991304596E+01  1.185532471E+03
2.992322509E+01  1.181450317E+03
2.993340422E+01  1.177896484E+03
2.994358335E+01  1.176131714E+03
2.995376248E+01  1.173565430E+03
2.996394161E+01  1.169145020E+03
2.997412074E+01  1.163824219E+03
2.998429987E+01  1.158963501E+03
2.999447900E+01  1.154991089E+03
3.000465813E+01  1.151463745E+03
3.001483726E+01  1.147615112E+03
3.002501640E+01  1.145037476E+03
3.003519553E+01  1.141581177E+03
3.004537466E+01  1.138262329E+03
3.005555379E+01  1.136937500E+03
3.006573292E+01  1.136160278E+03
3.007591205E+01  1.133502319E+03
3.008609118E+01  1.129712891E+03
3.009627031E+01  1.126940430E+03
3.010644944E+01  1.128160767E+03
3.011662857E+01  1.129868286E+03
3.012680770E+01  1.128283813E+03
3.013698683E+01  1.125596924E+03
3.014716596E+01  1.125274170E+03
3.015734509E+01  1.126050537E+03
3.016752422E+01  1.126792603E+03
3.017770335E+01  1.126456543E+03
3.018788249E+01  1.125272339E+03
3.019806162E+01  1.125531860E+03
3.020824075E+01  1.125083984E+03
3.021841988E+01  1.124472046E+03
3.022859901E+01  1.124310547E+03
3.023877814E+01  1.122686035E+03
3.024895727E+01  1.121269653E+03
3.025913640E+01  1.121388428E+03
3.026931553E+01  1.121596069E+03
3.027949466E+01  1.120957153E+03
3.028967379E+01  1.120018066E+03
3.029985292E+01  1.118762573E+03
3.031003205E+01  1.117864624E+03
3.032021118E+01  1.118308105E+03
3.033039031E+01  1.119421875E+03
3.034056944E+01  1.119369019E+03
3.035074857E+01  1.119102783E+03
3.036092771E+01  1.118365845E+03
3.037110684E+01  1.117038696E+03
3.038128597E+01  1.115523804E+03
3.039146510E+01  1.114312256E+03
3.040164423E+01  1.115022583E+03
3.041182336E+01  1.116143555E+03
3.042200249E+01  1.116615356E+03
3.043218162E+01  1.116470825E+03
3.044236075E+01  1.114556274E+03
3.045253988E+01  1.111094849E+03
3.046271901E+01  1.109585449E+03
3.047289814E+01  1.109082520E+03
3.048307727E+01  1.108618408E+03
3.049325640E+01  1.108742065E+03
3.050343553E+01  1.107899292E+03
3.051361466E+01  1.107341064E+03
3.052379380E+01  1.106508667E+03
3.053397293E+01  1.105663574E+03
3.054415206E+01  1.105513672E+03
3.055433119E+01  1.105429199E+03
3.056451032E+01  1.105142212E+03
3.057468945E+01  1.104223145E+03
3.058486858E+01  1.103077759E+03
3.059504771E+01  1.102052734E+03
3.060522684E+01  1.101858032E+03
3.061540597E+01  1.101770264E+03
3.062558510E+01  1.100805908E+03
3.063576423E+01  1.100348267E+03
3.064594336E+01  1.100330078E+03
3.065612249E+01  1.100110840E+03
3.066630162E+01  1.100533447E+03
3.067648075E+01  1.099661987E+03
3.068665989E+01  1.096764038E+03
3.069683902E+01  1.095258667E+03
3.070701815E+01  1.095018799E+03
3.071719728E+01  1.095056763E+03
3.072737641E+01  1.094762573E+03
3.073755554E+01  1.094122681E+03
3.074773467E+01  1.094213013E+03
3.075791380E+01  1.095765015E+03
3.076809293E+01  1.095466553E+03
3.077827206E+01  1.092775513E+03
3.078845119E+01  1.090767456E+03
3.079863032E+01  1.090056396E+03
3.080880945E+01  1.090662231E+03
3.081898858E+01  1.090961060E+03
3.082916771E+01  1.090017212E+03
3.083934684E+01  1.089130859E+03
3.084952598E+01  1.092396484E+03
3.085970511E+01  1.104177734E+03
3.086988424E+01  1.112296143E+03
3.088006337E+01  1.116824341E+03
3.089024250E+01  1.120517944E+03
3.090042163E+01  1.124131104E+03
3.091060076E+01  1.126641235E+03
3.092077989E+01  1.127490967E+03
3.093095902E+01  1.128745117E+03
3.094113815E+01  1.130774292E+03
3.095131728E+01  1.131799927E+03
3.096149641E+01  1.132578369E+03
3.097167554E+01  1.133694702E+03
3.098185467E+01  1.135277588E+03
3.099203380E+01  1.135884644E+03
3.100221293E+01  1.134503540E+03
3.101239207E+01  1.134032104E+03
3.102257120E+01  1.134692993E+03
3.103275033E+01  1.134686279E+03
3.104292946E+01  1.135060425E+03
3.105310859E+01  1.136210938E+03
3.106328772E+01  1.138149658E+03
3.107346685E+01  1.140224121E+03
3.108364598E+01  1.140760498E+03
3.109382511E+01  1.140522095E+03
3.110400424E+01  1.140130249E+03
3.111418337E+01  1.139028809E+03
3.112436250E+01  1.136945679E+03
3.113454163E+01  1.135414062E+03
3.114472076E+01  1.134082642E+03
3.115489989E+01  1.134868896E+03
3.116507902E+01  1.137096924E+03
3.117525816E+01  1.137207153E+03
3.118543729E+01  1.137597778E+03
3.119561642E+01  1.139455078E+03
3.120579555E+01  1.139203735E+03
3.121597468E+01  1.136102295E+03
3.122615381E+01  1.134668701E+03
3.123633294E+01  1.136977783E+03
3.124651207E+01  1.139548340E+03
3.125669120E+01  1.140606201E+03
3.126687033E+01  1.139609741E+03
3.127704946E+01  1.138691284E+03
3.128722859E+01  1.137780640E+03
3.129740772E+01  1.136937256E+03
3.130758685E+01  1.136538330E+03
3.131776598E+01  1.136620483E+03
3.132794511E+01  1.136620361E+03
3.133812424E+01  1.136872559E+03
3.134830338E+01  1.136046997E+03
3.135848251E+01  1.134749023E+03
3.136866164E+01  1.133748291E+03
3.137884077E+01  1.133197632E+03
3.138901990E+01  1.133975586E+03
3.139919903E+01  1.135819824E+03
3.140937816E+01  1.137289307E+03
3.141955729E+01  1.136353516E+03
3.142973642E+01  1.134714355E+03
3.143991555E+01  1.134710327E+03
3.145009468E+01  1.134363037E+03
3.146027381E+01  1.133605103E+03
3.147045294E+01  1.132247681E+03
3.148063207E+01  1.131542358E+03
3.149081120E+01  1.132598267E+03
3.150099033E+01  1.132641846E+03
3.151116947E+01  1.132307495E+03
3.152134860E+01  1.131835693E+03
3.153152773E+01  1.130511597E+03
3.154170686E+01  1.129563599E+03
3.155188599E+01  1.130412476E+03
3.156206512E+01  1.129901611E+03
3.157224425E+01  1.129059326E+03
3.158242338E+01  1.128995850E+03
3.159260251E+01  1.128360352E+03
3.160278164E+01  1.128340576E+03
3.161296077E+01  1.130663452E+03
3.162313990E+01  1.130066895E+03
3.163331903E+01  1.126958862E+03
3.164349816E+01  1.124867065E+03
3.165367729E+01  1.126207153E+03
3.166385642E+01  1.127876099E+03
3.167403556E+01  1.127651001E+03
3.168421469E+01  1.127568481E+03
3.169439382E+01  1.126997803E+03
3.170457295E+01  1.126379272E+03
3.171475208E+01  1.124534302E+03
3.172493121E+01  1.122561035E+03
3.173511034E+01  1.122367065E+03
3.174528947E+01  1.123019897E+03
3.175546860E+01  1.123308716E+03
3.176564773E+01  1.124114868E+03
3.177582686E+01  1.124521118E+03
3.178600599E+01  1.124947266E+03
3.179618512E+01  1.126660645E+03
3.180636425E+01  1.126794800E+03
3.181654338E+01  1.124321045E+03
3.182672251E+01  1.122333374E+03
3.183690165E+01  1.122587891E+03
3.184708078E+01  1.123430908E+03
3.185725991E+01  1.121438232E+03
3.186743904E+01  1.118244019E+03
3.187761817E+01  1.116051025E+03
3.188779730E+01  1.114364746E+03
3.189797643E+01  1.113541138E+03
3.190815556E+01  1.113967651E+03
3.191833469E+01  1.113743286E+03
3.192851382E+01  1.109717773E+03
3.193869295E+01  1.107933960E+03
3.194887208E+01  1.110308594E+03
3.195905121E+01  1.110068481E+03
3.196923034E+01  1.108045166E+03
3.197940947E+01  1.107662964E+03
3.198958860E+01  1.107271362E+03
3.199976774E+01  1.105778442E+03
3.200994687E+01  1.105039185E+03
3.202012600E+01  1.104136230E+03
3.203030513E+01  1.102838623E+03
3.204048426E+01  1.100846558E+03
3.205066339E+01  1.099916992E+03
3.206084252E+01  1.099526367E+03
3.207102165E+01  1.100218628E+03
3.208120078E+01  1.100796631E+03
3.209137991E+01  1.099650391E+03
3.210155904E+01  1.098340454E+03
3.211173817E+01  1.098465942E+03
3.212191730E+01  1.097606445E+03
3.213209643E+01  1.094786987E+03
3.214227556E+01  1.092183105E+03
3.215245469E+01  1.090898682E+03
3.216263383E+01  1.089669312E+03
3.217281296E+01  1.088810669E+03
3.218299209E+01  1.088855835E+03
3.219317122E+01  1.090906982E+03
3.220335035E+01  1.091157227E+03
3.221352948E+01  1.087899902E+03
3.222370861E+01  1.085574829E+03
3.223388774E+01  1.095594849E+03
3.224406687E+01  1.128102173E+03
3.225424600E+01  1.163044800E+03
3.226442513E+01  1.177970459E+03
3.227460426E+01  1.183040039E+03
3.228478339E+01  1.187592896E+03
3.229496252E+01  1.194000488E+03
3.230514165E+01  1.201535522E+03
3.231532078E+01  1.204282959E+03
3.232549991E+01  1.205877930E+03
3.233567905E+01  1.210017822E+03
3.234585818E+01  1.214645020E+03
3.235603731E+01  1.217006226E+03
3.236621644E+01  1.217460693E+03
3.237639557E+01  1.219079712E+03
3.238657470E+01  1.219612671E+03
3.239675383E+01  1.218816650E+03
3.240693296E+01  1.221037231E+03
3.241711209E+01  1.219962280E+03
3.242729122E+01  1.216606567E+03
3.243747035E+01  1.218578369E+03
3.244764948E+01  1.221234863E+03
3.245782861E+01  1.221440308E+03
3.246800774E+01  1.219225464E+03
3.247818687E+01  1.217062988E+03
3.248836600E+01  1.217777466E+03
3.249854514E+01  1.219850098E+03
3.250872427E+01  1.219225342E+03
3.251890340E+01  1.219292358E+03
3.252908253E+01  1.218978760E+03
3.253926166E+01  1.216204346E+03
3.254944079E+01  1.214204834E+03
3.255961992E+01  1.211248657E+03
3.256979905E+01  1.207122437E+03
3.257997818E+01  1.203128662E+03
3.259015731E+01  1.201680542E+03
3.260033644E+01  1.204422485E+03
3.261051557E+01  1.202969116E+03
3.262069470E+01  1.198832764E+03
3.263087383E+01  1.196954224E+03
3.264105296E+01  1.192837280E+03
3.265123209E+01  1.190198730E+03
3.266141123E+01  1.189441895E+03
3.267159036E+01  1.185360962E+03
3.268176949E+01  1.181678833E+03
3.269194862E+01  1.179848145E+03
3.270212775E+01  1.178247437E+03
3.271230688E+01  1.175097290E+03
3.272248601E+01  1.172829834E+03
3.273266514E+01  1.169491943E+03
3.274284427E+01  1.170001221E+03
3.275302340E+01  1.172044434E+03
3.276320253E+01  1.167520752E+03
3.277338166E+01  1.159120605E+03
3.278356079E+01  1.153887451E+03
3.279373992E+01  1.149217773E+03
3.280391905E+01  1.142012695E+03
3.281409818E+01  1.138679443E+03
3.282427732E+01  1.136505981E+03
3.283445645E+01  1.133003540E+03
3.284463558E+01  1.125145142E+03
3.285481471E+01  1.121439697E+03
3.286499384E+01  1.121824829E+03
3.287517297E+01  1.119557983E+03
3.288535210E+01  1.114227539E+03
3.289553123E+01  1.107378296E+03
3.290571036E+01  1.101443237E+03
3.291588949E+01  1.092447021E+03
3.292606862E+01  1.088877563E+03
3.293624775E+01  1.089818604E+03
3.294642688E+01  1.082922974E+03
3.295660601E+01  1.069976562E+03
3.296678514E+01  1.064282104E+03
3.297696427E+01  1.062651978E+03
3.298714341E+01  1.060094360E+03
3.299732254E+01  1.054736084E+03
3.300750167E+01  1.046626709E+03
3.301768080E+01  1.033891724E+03
3.302785993E+01  1.022449768E+03
3.303803906E+01  1.022269165E+03
3.304821819E+01  1.021309082E+03
3.305839732E+01  1.013225037E+03
3.306857645E+01  1.007553467E+03
3.307875558E+01  1.002173828E+03
3.308893471E+01  9.933565063E+02
3.309911384E+01  9.835706177E+02
3.310929297E+01  9.763873291E+02
3.311947210E+01  9.682919312E+02
3.312965123E+01  9.566766968E+02
3.313983036E+01  9.474448853E+02
3.315000950E+01  9.418707886E+02
3.316018863E+01  9.376526489E+02
3.317036776E+01  9.337639160E+02
3.318054689E+01  9.229755249E+02
3.319072602E+01  9.081669922E+02
3.320090515E+01  8.997278442E+02
3.321108428E+01  8.979240112E+02
3.322126341E+01  8.929349365E+02
3.323144254E+01  8.804019165E+02
3.324162167E+01  8.704793091E+02
3.325180080E+01  8.696228638E+02
3.326197993E+01  8.702557373E+02
3.327215906E+01  8.730716553E+02
3.328233819E+01  8.768764648E+02
3.329251732E+01  8.756755981E+02
3.330269645E+01  8.709067993E+02
3.331287558E+01  8.676398315E+02
3.332305472E+01  8.669622192E+02
3.333323385E+01  8.676025391E+02
3.334341298E+01  8.642136230E+02
3.335359211E+01  8.655144043E+02
3.336377124E+01  8.675578613E+02
3.337395037E+01  8.587630005E+02
3.338412950E+01  8.519305420E+02
3.339430863E+01  8.580520630E+02
3.340448776E+01  8.647479858E+02
3.341466689E+01  8.646571655E+02
3.342484602E+01  8.616113281E+02
3.343502515E+01  8.604487305E+02
3.344520428E+01  8.531073608E+02
3.345538341E+01  8.524754639E+02
3.346556254E+01  8.574909058E+02
3.347574167E+01  8.579107056E+02
3.348592081E+01  8.571426392E+02
3.349609994E+01  8.605283813E+02
3.350627907E+01  8.605060425E+02
3.351645820E+01  8.579974976E+02
3.352663733E+01  8.554369507E+02
3.353681646E+01  8.515405884E+02
3.354699559E+01  8.484608154E+02
3.355717472E+01  8.521878662E+02
3.356735385E+01  8.493515015E+02
3.357753298E+01  8.372227173E+02
3.358771211E+01  8.509934692E+02
3.359789124E+01  8.801715698E+02
3.360807037E+01  8.869405518E+02
3.361824950E+01  8.702191772E+02
3.362842863E+01  8.847682495E+02
