E,DOS,dDOS,Velocity,dVelocity
0.24918,0.00989944,0.0092398,3372.0307748030386,1049.1137617697168
0.49836099999999994,0.0374655,0.0279465,3434.8291446418675,854.0442039215483
0.747541,0.0825381,0.0449372,3459.060357643962,627.7540196549858
0.9967219999999999,0.15171400000000002,0.056874400000000006,3420.795359395481,427.4637368101481
1.2459,0.25262399999999996,0.06957260000000001,3349.013302308493,307.442178303587
1.49508,0.38653000000000004,0.08493819999999999,3281.9717373641374,240.40308269050897
1.74426,0.542596,0.0981087,3248.3905335737204,195.78872053880394
1.99344,0.7061930000000001,0.116182,3252.2250754131355,178.35552224224318
2.24262,0.8742620000000001,0.119175,3276.2437922785452,148.87290927095512
2.4918,1.05053,0.134392,3305.919334562827,140.97932930233105
2.74098,1.23505,0.145009,3337.8131058292397,130.63943976924932
2.99017,1.43079,0.154529,3367.892641841441,121.2546545618501
3.23935,1.6486599999999998,0.17522100000000002,3388.554698050327,120.05397059356703
3.4885300000000004,1.89769,0.19326500000000002,3397.0830901233076,115.3303473493615
3.73771,2.19999,0.218005,3385.970088166482,111.85105436327689
3.9868900000000003,2.54564,0.228622,3367.002648077548,100.80516130708789
4.23607,2.86595,0.26753000000000005,3370.0693148281034,104.87163801063912
4.48525,3.1777900000000003,0.284168,3382.483263371575,100.83336318977503
4.734430000000001,3.57646,0.317144,3371.1672062900648,99.65583124521834
4.98361,3.96858,0.348704,3369.539902835568,98.69892874142803
5.2327900000000005,4.25831,0.385313,3400.1342409924523,102.56286426548652
5.48197,4.6117099999999995,0.393813,3415.257006524653,97.22409755634398
5.73115,5.08213,0.43176099999999995,3405.9024997679157,96.46122535900221
5.98033,5.49872,0.48814300000000005,3413.1013314894158,101.00755245269866
6.229509999999999,5.86929,0.5227310000000001,3431.839905258437,101.89166323296782
6.47869,6.45559,0.542265,3412.707793831317,95.56495800338612
6.727869999999999,7.22323,0.647111,3371.0163893829445,100.67616787360251
6.97705,7.77796,0.640854,3369.6045780816594,92.55460823453876
7.22623,8.08177,0.716163,3405.5869725142834,100.60434079746608
7.475410000000001,8.49082,0.689682,3426.571127649712,92.78677510640998
7.724589999999999,9.14935,0.811239,3416.17278875648,100.97589518834899
7.97377,10.0244,0.833889,3384.615130025827,93.86073950737207
8.22295,10.8286,0.9557959999999999,3367.032282296049,99.07403471928268
8.47213,11.4406,0.9162110000000001,3372.3431390062237,90.03407748154602
8.72132,12.1516,1.0354,3369.741686939813,95.71807796189553
8.9705,13.0425,0.966608,3353.5936324846725,82.85844353629133
9.21968,14.0004,1.1447399999999999,3335.672221441424,90.9235159221741
9.468860000000001,14.8339,1.2648,3330.6804337363883,94.67211512011849
9.71804,15.4025,1.23722,3346.6348830118645,89.61737320637498
9.96722,15.8174,1.25591,3373.5769044616836,89.29833397632794
10.2164,16.0058,1.28579,3416.062029735312,91.48429797150231
10.4656,16.2499,1.46909,3453.918944208603,104.09445813497963
10.7148,17.0188,1.3841299999999999,3454.8777582325974,93.67152333488907
10.9639,18.6414,1.6145200000000002,3403.325489973074,98.2629148568778
11.2131,20.4599,1.61996,3349.1575586305107,88.40278958485601
11.4623,21.879,1.7117099999999998,3323.4690776654943,86.6812569050083
11.7115,23.4117,1.78425,3296.226016327174,83.74779446212047
11.9607,24.6567,1.9135900000000001,3285.5824174889417,85.00764583979316
12.2098,25.1511,1.94602,3309.072811042775,85.35493658759131
12.459,26.6866,2.05552,3288.344626129443,84.43806564040207
12.7082,29.5977,2.08778,3219.0149269460558,75.69942562093125
12.9574,31.6197,2.40226,3189.9137942898737,80.79327205276039
13.2066,32.2402,2.27517,3209.8228042086134,75.51616944540802
13.4557,33.2161,2.39315,3217.9127799521734,77.29220876401541
13.7049,35.3967,2.54548,3189.2062518849393,76.45922998976866
13.9541,37.9464,2.53857,3153.774555535706,70.33948655883083
14.2033,40.0312,2.77232,3134.8222576010025,72.37738605542924
14.4525,40.9549,2.96731,3147.3592186381234,76.02262247052951
14.7016,40.3498,2.9092700000000002,3199.25524448571,76.90093324846029
14.9508,41.0137,2.87372,3217.7546179944156,75.16438559074534
15.2,45.1851,3.1779599999999997,3150.0462274850793,73.86068099592988
15.4492,49.3711,3.4971300000000003,3091.714244728564,73.00970814924887
15.6984,50.5954,3.1855900000000004,3099.4611741013273,65.06152185127566
15.9475,51.8334,3.5409599999999997,3107.0253211671284,70.76250214325857
16.1967,54.6976,3.68094,3083.5279279791043,69.18110601973467
16.4459,56.2706,3.7347300000000003,3085.7745955784208,68.27991740585716
16.6951,57.8417,3.81949,3088.3886762229045,67.99048591898047
16.9443,62.6318,3.87925,3037.4122589907856,62.72179390009229
17.1934,68.2631,4.34575,2980.3375885984506,63.255982531050364
17.4426,71.058,4.33305,2969.0859663635765,60.36260576833539
17.6918,72.6014,4.464580000000001,2975.9066241361747,61.0123804370111
17.941,77.3717,4.85123,2940.740270814538,61.47325919513641
18.1902,82.6201,5.02466,2903.6840687278345,58.87558980987831
18.4394,83.5132,4.99257,2919.6610294567704,58.19282290642332
18.6885,82.1001,4.8863199999999996,2962.702329975748,58.78885325487947
18.9377,81.7973,4.99864,2992.6650834193824,60.97265793756498
19.1869,83.4246,5.286980000000001,2999.1034622225966,63.366994841418084
19.4361,87.2652,5.128340000000001,2979.97077516905,58.38735304809723
19.6853,94.4483,5.5377,2927.181114492376,57.22112079951378
19.9344,103.538,6.0798,2862.7832856232344,56.04659097249223
20.1836,109.181,5.98074,2835.9790331123627,51.79595708504696
20.4328,110.62200000000001,6.28452,2846.8049032133677,53.9219809467569
20.682,113.62799999999999,6.439780000000001,2844.3706334198955,53.746459122928094
20.9312,119.10700000000001,6.382280000000001,2822.5172669860126,50.42721133555705
21.1803,124.476,6.762910000000001,2803.3617795612117,50.782476855299066
21.4295,130.312,7.02375,2782.4850510120796,50.00413946664882
21.6787,134.089,7.20666,2777.435981495524,49.770734743744164
21.9279,132.46200000000002,7.31747,2810.0920294569673,51.75751314471917
22.1771,129.528,7.03034,2852.5607425364487,51.62196524341867
22.4262,129.219,7.3262,2876.1704489263634,54.36819833686732
22.6754,129.02100000000002,7.32689,2898.919270106043,54.88744232517069
22.9246,126.81200000000001,7.341069999999999,2936.977897510757,56.6857076008576
23.1738,124.55,7.40117,2976.0247831082324,58.96064490929698
23.423,122.20100000000001,6.886430000000001,3016.4054036934867,56.67456876483167
23.6721,121.412,7.25002,3044.3197926383855,60.60884654772282
23.9213,123.508,7.69342,3048.206886189581,63.30378920792706
24.1705,124.758,7.53787,3059.0546764477835,61.621683492065344
24.4197,123.27,7.4823,3092.3883987494924,62.58021301941108
24.6689,121.682,7.61752,3126.8762538155574,65.2616511902757
24.918,121.73899999999999,7.71085,3147.399190626406,66.46340246757882
25.1672,125.449,7.891589999999999,3136.8023175753183,65.78755909827056
25.4164,132.47299999999998,8.33864,3100.653134953556,65.0699167218292
25.6656,137.053,8.54424,3085.72853522881,64.13622386492017
25.9148,136.664,7.96272,3108.6141259659125,60.38746397939827
26.1639,134.387,8.50796,3146.073407628302,66.40416557539321
26.4131,132.442,8.26187,3181.441618656989,66.16636268624946
26.6623,132.785,8.178189999999999,3198.6620099953025,65.6809348181225
26.9115,134.44,8.97938,3205.300269418209,71.37346534760577
27.1607,134.171,8.49912,3227.211075539373,68.1554950922711
27.4098,133.54399999999998,8.31575,3251.9865106115344,67.51289776323244
27.659,133.491,9.09553,3272.1002814262174,74.32759014519547
27.9082,130.429,8.46152,3317.2849676912415,71.74828123581901
28.1574,127.93299999999999,8.166030000000001,3358.5652490651923,71.47253323238554
28.4066,131.99,9.43829,3343.377731029219,79.70376445267804
28.6557,138.082,8.903410000000001,3312.6936567472376,71.21246391163001
28.9049,140.12,9.08408,3315.6388705986565,71.66426429162472
29.1541,138.643,9.34719,3346.46839795062,75.21747360969104
29.4033,132.389,8.83563,3417.692881961049,76.04470487840862
29.6525,122.571,8.72076,3526.3973874640174,83.64492326007355
29.9017,115.322,8.57828,3618.9241654481066,89.74368613604736
30.1508,113.31299999999999,8.81435,3660.375151475973,94.92215547597748
30.4,114.82600000000001,8.94507,3664.279515782608,95.16196211043678
30.6492,117.12,8.82761,3660.064104830846,91.96776585456239
30.8984,116.383,9.31241,3687.6279325007445,98.36671842513968
31.1476,109.694,8.20313,3781.305089450805,94.27015036714404
31.3967,103.852,8.76373,3871.4233497302253,108.91013853075222
31.6459,107.887,9.12552,3842.74482556085,108.35609946390103
31.8951,113.662,8.97095,3796.328908283683,99.88882494345894
32.1443,112.1,9.257760000000001,3833.7200429142063,105.54707362729388
32.3935,107.068,9.06058,3912.9560567360013,110.38868236995216
32.6426,103.73200000000001,8.7636,3974.707700254538,111.94337862371862
32.8918,102.921,8.84634,4005.376812254861,114.76908349951077
33.141,104.999,9.23119,3998.848670514553,117.19996824326546
33.3902,107.771,10.0083,3984.113117848636,123.34052163353985
33.6394,109.294,9.566189999999999,3985.2264575016716,116.28295308514151
33.8885,116.90100000000001,9.83014,3916.051908179166,109.77760580688185
34.1377,132.002,10.4919,3779.046934127221,100.13482260437284
34.3869,145.74200000000002,10.6898,3674.1204789714625,89.8413480088824
34.6361,155.116,11.1483,3615.93050709544,86.63883362467584
34.8853,164.33,11.8806,3564.0378489253353,85.90205866275282
35.1344,175.541,12.4668,3503.0670990368303,82.94053654855783
35.3836,183.71400000000003,12.3191,3466.6251063009863,77.4984931090605
35.6328,186.662,13.0717,3464.4498553235317,80.88243139455543
35.882,187.957,12.3853,3472.571614021991,76.28715360558459
36.1312,186.687,12.5497,3496.5240198244837,78.36192272528632
36.3803,181.215,12.4598,3547.5818205203846,81.31965668928216
36.6295,169.75400000000002,11.6146,3642.226411193126,83.08029572042129
36.8787,150.724,11.7475,3806.6465115902197,98.90923097766563
37.1279,131.85299999999998,10.0674,3998.1265498085295,101.76941612919325
37.3771,120.436,10.3488,4139.087223693008,118.56600281930538
37.6262,111.542,10.2455,4265.144164006018,130.60054326346116
37.8754,96.202,8.62217,4500.52387097794,134.46646564491326
38.1246,78.2836,8.37075,4841.7186807077815,172.583696918268
38.3738,62.5054,7.9857,5241.677657565001,223.2359028185378
38.623,44.6321,6.8293,5889.808576038563,300.4155539915587
38.8721,28.4157,5.657430000000001,6875.8358547534335,456.3237998765884
39.1213,22.3129,6.41831,7484.735600459349,717.6682495158037
39.3705,21.7896,5.93794,7576.183506939414,688.208562662612
39.6197,19.2533,6.25212,7928.517948024602,858.2146228941791
39.8689,15.507,5.187180000000001,8557.229726129415,954.1536546660433
40.118,12.3761,5.255809999999999,9263.70103101479,1311.356855632636
40.3672,9.02674,4.91789,10333.839790387176,1876.6765219879449
40.6164,8.052769999999999,5.040719999999999,10778.842789366508,2249.0493019774053
40.8656,9.27783,5.09495,10323.874918694832,1889.80090483748
41.1148,9.20675,5.18383,10392.41040328776,1950.4752345243205
41.364,6.86515,5.3257699999999994,11506.713338552974,2975.52048951771
41.6131,5.08383,5.17148,12769.561713691237,4329.910052741737
41.8623,6.0205400000000004,6.02588,12117.78360838458,4042.8468438152436
42.1115,7.5378300000000005,4.88914,11287.678877372213,2440.4520764560675
42.3607,6.03803,5.67557,12201.969854521647,3823.1670263031315
42.6099,1.0768,3.80257,21762.80874844387,25617.449397955246
42.859,-1.34901,4.85947,-20266.367668785766,24334.835982974164
43.1082,2.9847799999999998,5.26307,15613.086598475365,9176.866981751895
43.3574,5.761,5.39175,12588.166545577296,3927.1135721733326
43.6066,-0.44497700000000007,3.64246,-29671.66478950405,80961.37801392718
43.8558,-4.75716,4.205430000000001,-13520.364189112632,3984.0996585077523
44.1049,-0.387201,6.27947,-31315.933022675505,169289.7336584816
44.3541,3.69735,5.30659,14816.488128368126,7088.415194954685
44.6033,3.78051,3.7308199999999996,14762.07752318147,4856.019918712144
44.8525,4.35846,6.26201,14130.787523169158,6767.464062481226
45.1017,3.4914300000000003,5.33611,15271.456026526228,7780.020873381995
45.3508,-1.2933700000000001,4.4037,-21342.010297023993,24221.946464846213
45.6,-5.16196,4.795059999999999,-13503.861279903263,4181.349730717373
45.8492,-3.15844,5.165109999999999,-15964.301293859031,8702.333524929893
46.0984,0.41298199999999996,5.13963,31566.987970195136,130952.14734977248
46.3476,1.47994,6.02257,20702.513749347407,28082.74744461988
46.5967,1.56016,5.73031,20414.24606799393,24993.155563753284
46.8459,0.312316,4.418069999999999,35021.59579046738,165140.28770190256
47.0951,-2.81917,4.87991,-16879.633457746088,9739.404658410818
47.3443,-2.80605,5.4943,-16965.485117848923,11072.917771170924
47.5935,-0.275806,4.38376,-36890.69272517575,195451.32401150343
47.8426,-0.148291,6.13,-45525.82962107382,627310.1215337835
48.0918,-1.5622,4.17783,-20839.53839288458,18577.232454741916
48.341,-0.789907,4.58004,-26248.513712128188,50731.392162941665
48.5902,1.9244,5.65378,19574.33242315716,19169.43438331369
48.8394,1.82191,4.81071,20002.80300596488,17605.64363460491
49.0885,0.0095025,5.25052,115733.7875044882,21315884.0996063
49.3377,1.6598099999999998,6.01355,20773.966430062632,25088.2717125386
49.5869,6.68083,6.39314,13103.504129408519,4179.750298563303
49.8361,11.452,6.54295,10985.55165280846,2092.1549909440632
50.0853,9.646989999999999,5.48145,11670.671940488215,2210.4425041336026
50.3344,1.97312,5.26195,19873.68410120025,17666.494832716726
50.5836,-2.42322,4.23342,-18619.23468107481,10842.743601018901
50.8328,0.364577,6.4492199999999995,35122.537411402016,207101.17136285693
51.082,6.28418,6.19381,13641.077434612143,4481.640441384622
51.3312,8.52042,6.35533,12364.794271590266,3074.2792682524105
51.5804,7.63893,6.32235,12864.667862815555,3549.1454102603834
51.8295,8.25415,7.032089999999999,12577.090279012004,3571.670826315656
52.0787,8.80892,6.31951,12346.735723100592,2952.515979540283
52.3279,6.957319999999999,5.11777,13399.682114736659,3285.58430513077
52.5771,3.7869800000000002,6.8141300000000005,16463.40641567213,9874.518921934694
52.8263,1.5438100000000001,5.18703,22273.499855616734,24945.496201115657
53.0754,3.88467,6.10877,16427.20806276652,8610.775655280428
53.3246,6.8582399999999994,7.38952,13634.329826698426,4896.845092604496
53.5738,4.929530000000001,5.82161,15268.13816008233,6010.3899418243045
53.823,3.41735,6.43272,17304.872273226767,10858.06458582682
54.0722,4.2794099999999995,6.04737,16104.26884041493,7585.820480439166
54.3213,3.6756900000000003,6.32975,16993.65363003375,9754.686031582407
54.5705,2.27615,6.22353,19998.217164033842,18226.613168540953
54.8197,0.6628109999999999,5.87395,30263.151482597874,89399.16019958635
55.0689,-3.26012,4.71206,-17848.95070631599,8599.413132676087
55.3181,-6.02039,4.70769,-14592.271875948072,3803.5174288487283
55.5672,-4.11186,4.47483,-16619.547189947498,6028.87699316948
55.8164,0.00967604,6.0898,125322.27813855762,26291320.602560647
56.0656,1.93586,4.85141,21491.131681895626,17952.79674881815
56.3148,1.92297,5.85921,21602.82158555361,21940.96948523604
56.564,1.59515,5.48831,23059.28573373372,26446.105660944442
56.8131,0.7427050000000001,6.53695,29838.69509690761,87542.18689902716
57.0623,-2.55077,4.02698,-19834.8399037964,10437.962801683365
57.3115,-5.8311,5.055219999999999,-15100.70783005436,4363.812134614333
57.5607,-4.303380000000001,4.385269999999999,-16758.446732124816,5692.453038128319
57.8099,-1.04979,5.40183,-26898.018383377603,46135.743552913154
58.059,-0.20191099999999998,5.51284,-46731.81607995616,425311.193565444
58.3082,0.09839810000000002,6.0511,59553.936034126185,1220778.3903892084
58.5574,0.398793,5.61696,37459.182847930795,175869.63033309113
58.8066,0.328498,5.32376,40073.6980647224,216483.05459543582
59.0558,1.32718,6.36425,25231.982786269276,40331.794123662876
59.3049,5.00399,6.2004,16257.029434635086,6714.650609682466
59.5541,8.31347,7.585839999999999,13764.695772655925,4186.654183429327
59.8033,5.4412,7.3166899999999995,15897.841188611283,7125.855992633225
60.0525,-1.03383,4.02347,-27730.474584596006,35973.91511362348
60.3017,-1.9273200000000001,5.21444,-22593.73577794174,20376.08205657085
60.5508,1.8293700000000002,5.46985,23053.26046705349,22976.559712210354
60.8,2.5074799999999997,4.09293,20810.196357940014,11322.749061778955
61.0492,0.539693,5.16524,34819.61842877253,111082.71266241203
61.2984,2.22831,6.17813,21763.421531870896,20113.48814600709
61.5476,8.24051,6.40605,14111.58088215767,3656.7155247339683
61.7967,11.0786,6.301480000000001,12820.398157235672,2430.742329938861
62.0459,7.1266300000000005,6.67702,14891.334057702315,4650.623483129814
62.2951,-0.967988,4.13504,-29046.83949077463,41360.65323153614
62.5443,-6.30636,4.19551,-15593.796259579325,3458.0982099303496
62.7935,-6.97118,2.4879599999999997,-15121.468854941846,1798.9219677462029
63.0427,-4.71954,5.05484,-17266.710094039925,6164.478792315095
63.2918,-0.8567030000000001,5.5887400000000005,-30575.56468893159,66487.01839024205
63.541,3.11761,5.73492,19930.355843363413,12220.795324516494
63.7902,4.6357,5.73496,17507.218529174235,7219.567425646626
64.0394,3.06861,5.36045,20140.514253318695,11727.594970482009
64.2886,0.32629400000000003,5.12412,42622.53087694784,223114.69979777935
64.5377,-2.53785,4.07944,-21567.83855265778,11556.334207840237
64.7869,-4.51649,4.79049,-17843.39131996717,6308.63373059609
65.0361,-5.911969999999999,3.23617,-16353.54350841065,2983.9448092872976
65.2853,-6.1817400000000005,2.32281,-16153.239869923627,2023.2222766556174
65.5345,-0.480908,4.95482,-37935.48237429972,130283.74663343595
65.7836,6.90145,7.6680600000000005,15650.129186135453,5796.18297532002
66.0328,6.1700800000000005,4.8613599999999995,16286.552423724725,4277.356108826398
66.282,0.9990870000000001,3.08832,29955.89167181144,30865.976128554026
66.5312,-0.7349600000000001,4.14882,-33267.126363519004,62597.203648183306
66.7804,1.09249,5.1099,29222.21544864985,45560.326633891666
67.0295,1.56341,5.00898,25995.966932519597,27762.665745610142
67.2787,0.46424,4.7854,39062.24138408218,134218.25723126568
67.5279,1.75728,6.5131,25126.275951649193,31042.284410752833
67.7771,1.61055,4.64473,25930.85691838424,24927.683024958424
68.0263,0.274246,3.82444,46898.334206636784,218003.62442288728
68.2754,2.30997,6.13448,23106.119054146468,20453.951057489005
68.5246,3.17775,4.644,20826.232609622777,10145.234572727137
68.7738,-0.0648527,4.72823,-76393.94625495607,1856556.7229067674
69.023,-0.433142,5.78172,-40663.56082638133,180930.1367449661
69.2722,4.89382,5.43607,18165.315323672923,6726.032999084746
69.5213,7.852310000000001,4.91864,15553.65262691185,3247.577724291359
69.7705,5.35435,5.24219,17713.26374462358,5780.74308422685
70.0197,2.79617,6.04409,22048.476749275767,15886.373000440484
70.2689,1.66356,5.246980000000001,26277.390282774722,27626.886805501592
70.5181,0.11641800000000001,3.68226,63916.547478699795,673885.9004955024
70.7672,-2.41355,4.56304,-23321.448769062703,14697.123248872644
71.0164,-6.08704,4.16359,-17173.415121231683,3915.596178107017
71.2656,-7.8238,3.8860900000000003,-15831.922979120556,2621.25227629737
71.5148,-0.22644699999999998,4.73975,-51684.62619259259,360602.7126390339
71.764,7.712260000000001,6.13547,15981.9642694088,4238.142735417852
72.0131,4.99636,4.45059,18512.967896161656,5496.915490144443
72.2623,1.24422,5.40815,29493.642520432277,42732.54167160479
72.5115,1.2277200000000001,4.3544,29693.25220353227,35104.721201944296
72.7607,-0.14865899999999999,4.99445,-60157.13266681076,673693.4672487638
73.0099,-1.8785900000000002,3.91649,-25885.91086954833,17989.010940564265
73.259,-3.65826,4.44779,-20776.32606116439,8420.103290717047
73.5082,-4.61132,4.67207,-19276.805098015266,6510.257888219403
73.7574,-1.472,5.36217,-28269.670543831802,34326.71822640502
74.0066,2.37506,6.27987,24156.929076200737,21291.025648551895
74.2558,1.6097700000000001,4.61078,27562.499284177207,26315.27730126355
74.505,-0.00308879,3.6425,-222303.9108252016,87385027.27402683
74.7541,-0.5897359999999999,3.7577800000000003,-38692.22898708119,82181.90674725054
75.0033,-3.3117,2.77488,-21816.72394639785,6093.431798192169
