# == pyFAI calibration ==
# SplineFile: None
# PixelSize: 7.900e-05, 7.900e-05 m
# PONI: 1.411e-01, 1.028e-01 m
# Distance Sample to Detector: 0.252389920345 m
# Rotations: 0.001947 0.002954 0.000003 rad
# 
# == Fit2d calibration ==
# Distance Sample-beamCenter: 252.392 mm
# Center: x=1295.273, y=1795.185 pix
# Tilt: 0.203 deg  TiltPlanRot: 123.397 deg
# 
# Wavelength: 8.603e-11
# Polarization factor: 0.99
# Normalization factor: None
#
# 2th_deg	 I
3.335335913E+00  4.518802246E+03
3.345515043E+00  4.510745605E+03
3.355694174E+00  4.495968262E+03
3.365873304E+00  4.515527344E+03
3.376052435E+00  4.547338379E+03
3.386231566E+00  4.573440430E+03
3.396410696E+00  4.603914551E+03
3.406589827E+00  4.648697266E+03
3.416768958E+00  4.685998535E+03
3.426948088E+00  4.685350098E+03
3.437127219E+00  4.673067871E+03
3.447306349E+00  4.680413574E+03
3.457485480E+00  4.699669434E+03
3.467664611E+00  4.721771484E+03
3.477843741E+00  4.728521973E+03
3.488022872E+00  4.724057129E+03
3.498202002E+00  4.737899414E+03
3.508381133E+00  4.767858887E+03
3.518560264E+00  4.773682617E+03
3.528739394E+00  4.760563965E+03
3.538918525E+00  4.748588379E+03
3.549097656E+00  4.754711426E+03
3.559276786E+00  4.774634277E+03
3.569455917E+00  4.785775879E+03
3.579635047E+00  4.772825195E+03
3.589814178E+00  4.770739258E+03
3.599993309E+00  4.777773926E+03
3.610172439E+00  4.804363770E+03
3.620351570E+00  4.842152832E+03
3.630530701E+00  4.866319336E+03
3.640709831E+00  4.878359863E+03
3.650888962E+00  4.872607422E+03
3.661068092E+00  4.859275879E+03
3.671247223E+00  4.845624512E+03
3.681426354E+00  4.855242188E+03
3.691605484E+00  4.891062988E+03
3.701784615E+00  4.915663086E+03
3.711963745E+00  4.917708008E+03
3.722142876E+00  4.905464355E+03
3.732322007E+00  4.895020996E+03
3.742501137E+00  4.886523438E+03
3.752680268E+00  4.884592773E+03
3.762859399E+00  4.900173828E+03
3.773038529E+00  4.924753906E+03
3.783217660E+00  4.938407715E+03
3.793396790E+00  4.935210449E+03
3.803575921E+00  4.932950195E+03
3.813755052E+00  4.920567871E+03
3.823934182E+00  4.922960449E+03
3.834113313E+00  4.925693848E+03
3.844292444E+00  4.924971191E+03
3.854471574E+00  4.930631836E+03
3.864650705E+00  4.933000977E+03
3.874829835E+00  4.940912598E+03
3.885008966E+00  4.950460938E+03
3.895188097E+00  4.959549805E+03
3.905367227E+00  4.957454102E+03
3.915546358E+00  4.961862305E+03
3.925725488E+00  4.956741699E+03
3.935904619E+00  4.950005859E+03
3.946083750E+00  4.948228027E+03
3.956262880E+00  4.957848633E+03
3.966442011E+00  4.959794434E+03
3.976621142E+00  4.970565918E+03
3.986800272E+00  4.973751465E+03
3.996979403E+00  4.964011719E+03
4.007158533E+00  4.952193848E+03
4.017337664E+00  4.949525879E+03
4.027516795E+00  4.960624023E+03
4.037695925E+00  4.969625000E+03
4.047875056E+00  4.980177734E+03
4.058054187E+00  4.995500488E+03
4.068233317E+00  4.992309082E+03
4.078412448E+00  4.978456543E+03
4.088591578E+00  4.980130859E+03
4.098770709E+00  4.985076660E+03
4.108949840E+00  4.978893066E+03
4.119128970E+00  4.965279785E+03
4.129308101E+00  4.968564941E+03
4.139487231E+00  4.975642578E+03
4.149666362E+00  4.980104004E+03
4.159845493E+00  4.979427734E+03
4.170024623E+00  4.972462402E+03
4.180203754E+00  4.975130371E+03
4.190382885E+00  4.981091309E+03
4.200562015E+00  4.982359863E+03
4.210741146E+00  4.980754395E+03
4.220920276E+00  4.985683105E+03
4.231099407E+00  4.990660156E+03
4.241278538E+00  4.994715332E+03
4.251457668E+00  4.987222656E+03
4.261636799E+00  4.974177734E+03
4.271815930E+00  4.965260254E+03
4.281995060E+00  4.974447266E+03
4.292174191E+00  4.987707520E+03
4.302353321E+00  4.978838379E+03
4.312532452E+00  4.965686523E+03
4.322711583E+00  4.948373047E+03
4.332890713E+00  4.943718750E+03
4.343069844E+00  4.934324219E+03
4.353248974E+00  4.931618164E+03
4.363428105E+00  4.938589844E+03
4.373607236E+00  4.944973633E+03
4.383786366E+00  4.955921875E+03
4.393965497E+00  4.965508789E+03
4.404144628E+00  4.970565430E+03
4.414323758E+00  4.974856934E+03
4.424502889E+00  4.975028809E+03
4.434682019E+00  4.976453125E+03
4.444861150E+00  4.967664062E+03
4.455040281E+00  4.959675293E+03
4.465219411E+00  4.952080078E+03
4.475398542E+00  4.956970215E+03
4.485577673E+00  4.968312012E+03
4.495756803E+00  4.977752441E+03
4.505935934E+00  4.968583984E+03
4.516115064E+00  4.955302246E+03
4.526294195E+00  4.954179688E+03
4.536473326E+00  4.961127441E+03
4.546652456E+00  4.966757324E+03
4.556831587E+00  4.969901367E+03
4.567010717E+00  4.964310547E+03
4.577189848E+00  4.957750488E+03
4.587368979E+00  4.950697266E+03
4.597548109E+00  4.934892578E+03
4.607727240E+00  4.923866699E+03
4.617906371E+00  4.931978516E+03
4.628085501E+00  4.943976562E+03
4.638264632E+00  4.945717773E+03
4.648443762E+00  4.946746582E+03
4.658622893E+00  4.942784180E+03
4.668802024E+00  4.939924805E+03
4.678981154E+00  4.945830078E+03
4.689160285E+00  4.953010254E+03
4.699339415E+00  4.961101562E+03
4.709518546E+00  4.963971680E+03
4.719697677E+00  4.964845703E+03
4.729876807E+00  4.956547363E+03
4.740055938E+00  4.945913086E+03
4.750235069E+00  4.938571289E+03
4.760414199E+00  4.931248535E+03
4.770593330E+00  4.926704590E+03
4.780772460E+00  4.927833984E+03
4.790951591E+00  4.931992188E+03
4.801130722E+00  4.936063477E+03
4.811309852E+00  4.931699707E+03
4.821488983E+00  4.929393066E+03
4.831668114E+00  4.931606934E+03
4.841847244E+00  4.940075195E+03
4.852026375E+00  4.933914062E+03
4.862205505E+00  4.928029297E+03
4.872384636E+00  4.928669434E+03
4.882563767E+00  4.926420898E+03
4.892742897E+00  4.920514160E+03
4.902922028E+00  4.911434082E+03
4.913101158E+00  4.905187012E+03
4.923280289E+00  4.911984375E+03
4.933459420E+00  4.916865723E+03
4.943638550E+00  4.918154297E+03
4.953817681E+00  4.914889648E+03
4.963996812E+00  4.916812500E+03
4.974175942E+00  4.920062500E+03
4.984355073E+00  4.921917480E+03
4.994534203E+00  4.919033691E+03
5.004713334E+00  4.918069336E+03
5.014892465E+00  4.917721191E+03
5.025071595E+00  4.912862305E+03
5.035250726E+00  4.910508789E+03
5.045429857E+00  4.915309570E+03
5.055608987E+00  4.924976562E+03
5.065788118E+00  4.933026855E+03
5.075967248E+00  4.937565918E+03
5.086146379E+00  4.939924316E+03
5.096325510E+00  4.938787109E+03
5.106504640E+00  4.930331055E+03
5.116683771E+00  4.918165527E+03
5.126862901E+00  4.919515137E+03
5.137042032E+00  4.919600586E+03
5.147221163E+00  4.913861816E+03
5.157400293E+00  4.910505371E+03
5.167579424E+00  4.915969238E+03
5.177758555E+00  4.922447266E+03
5.187937685E+00  4.923598633E+03
5.198116816E+00  4.918651855E+03
5.208295946E+00  4.917791016E+03
5.218475077E+00  4.911954102E+03
5.228654208E+00  4.901453125E+03
5.238833338E+00  4.897601074E+03
5.249012469E+00  4.903045898E+03
5.259191600E+00  4.903196777E+03
5.269370730E+00  4.896709961E+03
5.279549861E+00  4.895333008E+03
5.289728991E+00  4.900447754E+03
5.299908122E+00  4.907005859E+03
5.310087253E+00  4.909950195E+03
5.320266383E+00  4.909259766E+03
5.330445514E+00  4.906270508E+03
5.340624644E+00  4.899392090E+03
5.350803775E+00  4.891074707E+03
5.360982906E+00  4.889427246E+03
5.371162036E+00  4.888727051E+03
5.381341167E+00  4.884029297E+03
5.391520298E+00  4.877866699E+03
5.401699428E+00  4.869648926E+03
5.411878559E+00  4.855143066E+03
5.422057689E+00  4.846181641E+03
5.432236820E+00  4.834276855E+03
5.442415951E+00  4.828529297E+03
5.452595081E+00  4.832248535E+03
5.462774212E+00  4.836672852E+03
5.472953343E+00  4.836790527E+03
5.483132473E+00  4.833613281E+03
5.493311604E+00  4.827665527E+03
5.503490734E+00  4.820215332E+03
5.513669865E+00  4.812136230E+03
5.523848996E+00  4.803441895E+03
5.534028126E+00  4.800221191E+03
5.544207257E+00  4.798294922E+03
5.554386387E+00  4.793555176E+03
5.564565518E+00  4.786625488E+03
5.574744649E+00  4.779385254E+03
5.584923779E+00  4.773457520E+03
5.595102910E+00  4.770903809E+03
5.605282041E+00  4.769487305E+03
5.615461171E+00  4.770073242E+03
5.625640302E+00  4.767633301E+03
5.635819432E+00  4.763344238E+03
5.645998563E+00  4.758617676E+03
5.656177694E+00  4.755187988E+03
5.666356824E+00  4.758487793E+03
5.676535955E+00  4.760699707E+03
5.686715086E+00  4.759073730E+03
5.696894216E+00  4.752292480E+03
5.707073347E+00  4.744612305E+03
5.717252477E+00  4.736202148E+03
5.727431608E+00  4.728388672E+03
5.737610739E+00  4.724330566E+03
5.747789869E+00  4.721373047E+03
5.757969000E+00  4.717828125E+03
5.768148130E+00  4.717193848E+03
5.778327261E+00  4.718806641E+03
5.788506392E+00  4.719384277E+03
5.798685522E+00  4.714527344E+03
5.808864653E+00  4.709710938E+03
5.819043784E+00  4.711347656E+03
5.829222914E+00  4.716809570E+03
5.839402045E+00  4.719583496E+03
5.849581175E+00  4.717741211E+03
5.859760306E+00  4.710899902E+03
5.869939437E+00  4.703261230E+03
5.880118567E+00  4.691824707E+03
5.890297698E+00  4.686826172E+03
5.900476829E+00  4.686344727E+03
5.910655959E+00  4.685509277E+03
5.920835090E+00  4.686057617E+03
5.931014220E+00  4.683914551E+03
5.941193351E+00  4.680697754E+03
5.951372482E+00  4.676114258E+03
5.961551612E+00  4.669794922E+03
5.971730743E+00  4.667045410E+03
5.981909873E+00  4.673067383E+03
5.992089004E+00  4.674027344E+03
6.002268135E+00  4.671938965E+03
6.012447265E+00  4.668521484E+03
6.022626396E+00  4.660518555E+03
6.032805527E+00  4.650032227E+03
6.042984657E+00  4.643618652E+03
6.053163788E+00  4.642206543E+03
6.063342918E+00  4.642092285E+03
6.073522049E+00  4.639643555E+03
6.083701180E+00  4.631599609E+03
6.093880310E+00  4.619919434E+03
6.104059441E+00  4.611931641E+03
6.114238572E+00  4.612427246E+03
6.124417702E+00  4.620671387E+03
6.134596833E+00  4.624024414E+03
6.144775963E+00  4.620598145E+03
6.154955094E+00  4.614732910E+03
6.165134225E+00  4.610513672E+03
6.175313355E+00  4.605453613E+03
6.185492486E+00  4.603944824E+03
6.195671616E+00  4.603596680E+03
6.205850747E+00  4.600751465E+03
6.216029878E+00  4.593737305E+03
6.226209008E+00  4.588336914E+03
6.236388139E+00  4.585464844E+03
6.246567270E+00  4.584039062E+03
6.256746400E+00  4.582250488E+03
6.266925531E+00  4.579961426E+03
6.277104661E+00  4.573006836E+03
6.287283792E+00  4.568356445E+03
6.297462923E+00  4.566934570E+03
6.307642053E+00  4.564976074E+03
6.317821184E+00  4.561759277E+03
6.328000315E+00  4.557291992E+03
6.338179445E+00  4.554323730E+03
6.348358576E+00  4.554968750E+03
6.358537706E+00  4.557844238E+03
6.368716837E+00  4.551906250E+03
6.378895968E+00  4.545303223E+03
6.389075098E+00  4.540319824E+03
6.399254229E+00  4.541474609E+03
6.409433359E+00  4.539961914E+03
6.419612490E+00  4.527696289E+03
6.429791621E+00  4.516049805E+03
6.439970751E+00  4.511068848E+03
6.450149882E+00  4.509687988E+03
6.460329013E+00  4.509524414E+03
6.470508143E+00  4.508505859E+03
6.480687274E+00  4.504198730E+03
6.490866404E+00  4.496130859E+03
6.501045535E+00  4.490581543E+03
6.511224666E+00  4.491939941E+03
6.521403796E+00  4.496590820E+03
6.531582927E+00  4.494723145E+03
6.541762058E+00  4.487277832E+03
6.551941188E+00  4.480419922E+03
6.562120319E+00  4.473025879E+03
6.572299449E+00  4.465502441E+03
6.582478580E+00  4.462293945E+03
6.592657711E+00  4.462077637E+03
6.602836841E+00  4.460748047E+03
6.613015972E+00  4.459347168E+03
6.623195102E+00  4.455728516E+03
6.633374233E+00  4.451698730E+03
6.643553364E+00  4.448045410E+03
6.653732494E+00  4.442715332E+03
6.663911625E+00  4.431983887E+03
6.674090756E+00  4.425849121E+03
6.684269886E+00  4.426152832E+03
6.694449017E+00  4.424486816E+03
6.704628147E+00  4.418526855E+03
6.714807278E+00  4.409788086E+03
6.724986409E+00  4.400126953E+03
6.735165539E+00  4.397612305E+03
6.745344670E+00  4.401562012E+03
6.755523800E+00  4.406847656E+03
6.765702931E+00  4.409202637E+03
6.775882062E+00  4.407676758E+03
6.786061192E+00  4.405388672E+03
6.796240323E+00  4.406145508E+03
6.806419454E+00  4.404353516E+03
6.816598584E+00  4.404598633E+03
6.826777715E+00  4.402486816E+03
6.836956845E+00  4.399770996E+03
6.847135976E+00  4.396525391E+03
6.857315107E+00  4.393822266E+03
6.867494237E+00  4.388760742E+03
6.877673368E+00  4.384938965E+03
6.887852499E+00  4.377562012E+03
6.898031629E+00  4.370773926E+03
6.908210760E+00  4.363605957E+03
6.918389890E+00  4.359221680E+03
6.928569021E+00  4.352260742E+03
6.938748152E+00  4.344730957E+03
6.948927282E+00  4.340704590E+03
6.959106413E+00  4.345369629E+03
6.969285543E+00  4.352749512E+03
6.979464674E+00  4.352266113E+03
6.989643805E+00  4.343664062E+03
6.999822935E+00  4.333434570E+03
7.010002066E+00  4.323294922E+03
7.020181197E+00  4.316436035E+03
7.030360327E+00  4.310363770E+03
7.040539458E+00  4.309919922E+03
7.050718588E+00  4.312714844E+03
7.060897719E+00  4.317006348E+03
7.071076850E+00  4.315222168E+03
7.081255980E+00  4.308510742E+03
7.091435111E+00  4.300126465E+03
7.101614242E+00  4.291531738E+03
7.111793372E+00  4.285945312E+03
7.121972503E+00  4.283035156E+03
7.132151633E+00  4.276528809E+03
7.142330764E+00  4.271040527E+03
7.152509895E+00  4.266422363E+03
7.162689025E+00  4.263969727E+03
7.172868156E+00  4.263937500E+03
7.183047286E+00  4.261606445E+03
7.193226417E+00  4.253482422E+03
7.203405548E+00  4.246106445E+03
7.213584678E+00  4.241840820E+03
7.223763809E+00  4.238590332E+03
7.233942940E+00  4.237103027E+03
7.244122070E+00  4.236375488E+03
7.254301201E+00  4.233856445E+03
7.264480331E+00  4.227143555E+03
7.274659462E+00  4.220005371E+03
7.284838593E+00  4.212570312E+03
7.295017723E+00  4.209420410E+03
7.305196854E+00  4.211079590E+03
7.315375985E+00  4.214599121E+03
7.325555115E+00  4.213462891E+03
7.335734246E+00  4.204976074E+03
7.345913376E+00  4.198458008E+03
7.356092507E+00  4.192842773E+03
7.366271638E+00  4.186316895E+03
7.376450768E+00  4.178928711E+03
7.386629899E+00  4.171760742E+03
7.396809029E+00  4.171175781E+03
7.406988160E+00  4.171938965E+03
7.417167291E+00  4.169679688E+03
7.427346421E+00  4.162155273E+03
7.437525552E+00  4.154545898E+03
7.447704683E+00  4.154373047E+03
7.457883813E+00  4.155999512E+03
7.468062944E+00  4.153086426E+03
7.478242074E+00  4.145871094E+03
7.488421205E+00  4.137057617E+03
7.498600336E+00  4.130265625E+03
7.508779466E+00  4.127517578E+03
7.518958597E+00  4.123394043E+03
7.529137728E+00  4.115494629E+03
7.539316858E+00  4.105325684E+03
7.549495989E+00  4.100105469E+03
7.559675119E+00  4.097726562E+03
7.569854250E+00  4.095815918E+03
7.580033381E+00  4.090729736E+03
7.590212511E+00  4.083879883E+03
7.600391642E+00  4.077659180E+03
7.610570772E+00  4.070406006E+03
7.620749903E+00  4.063368896E+03
7.630929034E+00  4.056949219E+03
7.641108164E+00  4.053516602E+03
7.651287295E+00  4.051924561E+03
7.661466426E+00  4.052048340E+03
7.671645556E+00  4.047987061E+03
7.681824687E+00  4.040950439E+03
7.692003817E+00  4.034712402E+03
7.702182948E+00  4.028821045E+03
7.712362079E+00  4.022845215E+03
7.722541209E+00  4.018491943E+03
7.732720340E+00  4.016019287E+03
7.742899471E+00  4.011571533E+03
7.753078601E+00  4.001040771E+03
7.763257732E+00  3.991719238E+03
7.773436862E+00  3.985299316E+03
7.783615993E+00  3.979965332E+03
7.793795124E+00  3.977246582E+03
7.803974254E+00  3.973917969E+03
7.814153385E+00  3.966050537E+03
7.824332515E+00  3.957967041E+03
7.834511646E+00  3.950028809E+03
7.844690777E+00  3.946400146E+03
7.854869907E+00  3.943350586E+03
7.865049038E+00  3.936679199E+03
7.875228169E+00  3.930423096E+03
7.885407299E+00  3.927679688E+03
7.895586430E+00  3.920677490E+03
7.905765560E+00  3.915822510E+03
7.915944691E+00  3.910369629E+03
7.926123822E+00  3.905542480E+03
7.936302952E+00  3.901475830E+03
7.946482083E+00  3.900107178E+03
7.956661214E+00  3.898547607E+03
7.966840344E+00  3.894340576E+03
7.977019475E+00  3.887426758E+03
7.987198605E+00  3.881011719E+03
7.997377736E+00  3.874920898E+03
8.007556867E+00  3.871267334E+03
8.017735997E+00  3.867509521E+03
8.027915128E+00  3.861496094E+03
8.038094258E+00  3.853652832E+03
8.048273389E+00  3.845030273E+03
8.058452520E+00  3.839702148E+03
8.068631650E+00  3.834315674E+03
8.078810781E+00  3.828175293E+03
8.088989912E+00  3.820983398E+03
8.099169042E+00  3.815048096E+03
8.109348173E+00  3.811540283E+03
8.119527303E+00  3.811664062E+03
8.129706434E+00  3.810685059E+03
8.139885565E+00  3.809431641E+03
8.150064695E+00  3.807659912E+03
8.160243826E+00  3.802763916E+03
8.170422957E+00  3.795312256E+03
8.180602087E+00  3.789737549E+03
8.190781218E+00  3.783982422E+03
8.200960348E+00  3.777960205E+03
8.211139479E+00  3.773039795E+03
8.221318610E+00  3.771091064E+03
8.231497740E+00  3.767709473E+03
8.241676871E+00  3.758733887E+03
8.251856001E+00  3.751788330E+03
8.262035132E+00  3.748456055E+03
8.272214263E+00  3.744987061E+03
8.282393393E+00  3.741852539E+03
8.292572524E+00  3.741116455E+03
8.302751655E+00  3.738402832E+03
8.312930785E+00  3.734212646E+03
8.323109916E+00  3.725477783E+03
8.333289046E+00  3.719494629E+03
8.343468177E+00  3.714825684E+03
8.353647308E+00  3.709458740E+03
8.363826438E+00  3.703257812E+03
8.374005569E+00  3.698744873E+03
8.384184700E+00  3.692734619E+03
8.394363830E+00  3.683853760E+03
8.404542961E+00  3.680203857E+03
8.414722091E+00  3.678257568E+03
8.424901222E+00  3.674543701E+03
8.435080353E+00  3.669434082E+03
8.445259483E+00  3.666775879E+03
8.455438614E+00  3.663335693E+03
8.465617744E+00  3.657651123E+03
8.475796875E+00  3.652236328E+03
8.485976006E+00  3.650064209E+03
8.496155136E+00  3.646633301E+03
8.506334267E+00  3.639321533E+03
8.516513398E+00  3.634119629E+03
8.526692528E+00  3.629642578E+03
8.536871659E+00  3.627280029E+03
8.547050789E+00  3.623018555E+03
8.557229920E+00  3.616551270E+03
8.567409051E+00  3.609515869E+03
8.577588181E+00  3.602231934E+03
8.587767312E+00  3.595396484E+03
8.597946443E+00  3.590845947E+03
8.608125573E+00  3.588971924E+03
8.618304704E+00  3.585520508E+03
8.628483834E+00  3.584571777E+03
8.638662965E+00  3.582014648E+03
8.648842096E+00  3.578007568E+03
8.659021226E+00  3.572450439E+03
8.669200357E+00  3.563389893E+03
8.679379487E+00  3.556172607E+03
8.689558618E+00  3.555973389E+03
8.699737749E+00  3.554927979E+03
8.709916879E+00  3.549943115E+03
8.720096010E+00  3.544302979E+03
8.730275141E+00  3.536791992E+03
8.740454271E+00  3.530076904E+03
8.750633402E+00  3.524615479E+03
8.760812532E+00  3.523246094E+03
8.770991663E+00  3.519989990E+03
8.781170794E+00  3.515725342E+03
8.791349924E+00  3.509029785E+03
8.801529055E+00  3.500408447E+03
8.811708185E+00  3.490499512E+03
8.821887316E+00  3.484007812E+03
8.832066447E+00  3.480564941E+03
8.842245577E+00  3.477003906E+03
8.852424708E+00  3.474593018E+03
8.862603839E+00  3.472595703E+03
8.872782969E+00  3.469826416E+03
8.882962100E+00  3.467495605E+03
8.893141230E+00  3.464770508E+03
8.903320361E+00  3.458410156E+03
8.913499492E+00  3.453097168E+03
8.923678622E+00  3.450166992E+03
8.933857753E+00  3.447148682E+03
8.944036884E+00  3.441730225E+03
8.954216014E+00  3.437900635E+03
8.964395145E+00  3.430141113E+03
8.974574275E+00  3.423658936E+03
8.984753406E+00  3.418238037E+03
8.994932537E+00  3.412972168E+03
9.005111667E+00  3.408597900E+03
9.015290798E+00  3.404782471E+03
9.025469928E+00  3.403113037E+03
9.035649059E+00  3.400238770E+03
9.045828190E+00  3.394388184E+03
9.056007320E+00  3.386994629E+03
9.066186451E+00  3.384780518E+03
9.076365582E+00  3.385189453E+03
9.086544712E+00  3.379788330E+03
9.096723843E+00  3.375072510E+03
9.106902973E+00  3.375524170E+03
9.117082104E+00  3.372554688E+03
9.127261235E+00  3.362401123E+03
9.137440365E+00  3.354232178E+03
9.147619496E+00  3.348586426E+03
9.157798627E+00  3.346025391E+03
9.167977757E+00  3.341863525E+03
9.178156888E+00  3.338522461E+03
9.188336018E+00  3.337084717E+03
9.198515149E+00  3.334749512E+03
9.208694280E+00  3.329779541E+03
9.218873410E+00  3.322189453E+03
9.229052541E+00  3.316092285E+03
9.239231671E+00  3.308547119E+03
9.249410802E+00  3.303097656E+03
9.259589933E+00  3.301771484E+03
9.269769063E+00  3.302016602E+03
9.279948194E+00  3.295970459E+03
9.290127325E+00  3.286152832E+03
9.300306455E+00  3.279709473E+03
9.310485586E+00  3.275974365E+03
9.320664716E+00  3.270892090E+03
9.330843847E+00  3.265509521E+03
9.341022978E+00  3.262421387E+03
9.351202108E+00  3.259513184E+03
9.361381239E+00  3.256415039E+03
9.371560370E+00  3.255648193E+03
9.381739500E+00  3.252628418E+03
9.391918631E+00  3.248498291E+03
9.402097761E+00  3.242341064E+03
9.412276892E+00  3.237436035E+03
9.422456023E+00  3.232900879E+03
9.432635153E+00  3.228202148E+03
9.442814284E+00  3.222535400E+03
9.452993414E+00  3.216228516E+03
9.463172545E+00  3.213891846E+03
9.473351676E+00  3.210724121E+03
9.483530806E+00  3.207581543E+03
9.493709937E+00  3.205648193E+03
9.503889068E+00  3.204260742E+03
9.514068198E+00  3.200865723E+03
9.524247329E+00  3.196826660E+03
9.534426459E+00  3.189435791E+03
9.544605590E+00  3.180119873E+03
9.554784721E+00  3.172541016E+03
9.564963851E+00  3.168108398E+03
9.575142982E+00  3.163024658E+03
9.585322113E+00  3.158965576E+03
9.595501243E+00  3.156051514E+03
9.605680374E+00  3.154482666E+03
9.615859504E+00  3.151689697E+03
9.626038635E+00  3.145980957E+03
9.636217766E+00  3.139098877E+03
9.646396896E+00  3.134835205E+03
9.656576027E+00  3.133931152E+03
9.666755157E+00  3.130266357E+03
9.676934288E+00  3.124352783E+03
9.687113419E+00  3.119458252E+03
9.697292549E+00  3.117856689E+03
9.707471680E+00  3.117157471E+03
9.717650811E+00  3.111951660E+03
9.727829941E+00  3.107422119E+03
9.738009072E+00  3.102528564E+03
9.748188202E+00  3.096694092E+03
9.758367333E+00  3.093941406E+03
9.768546464E+00  3.089579102E+03
9.778725594E+00  3.083399170E+03
9.788904725E+00  3.077077637E+03
9.799083856E+00  3.074173340E+03
9.809262986E+00  3.069986084E+03
9.819442117E+00  3.064829102E+03
9.829621247E+00  3.058655029E+03
9.839800378E+00  3.056663574E+03
9.849979509E+00  3.053446289E+03
9.860158639E+00  3.049418701E+03
9.870337770E+00  3.045521484E+03
9.880516900E+00  3.041523438E+03
9.890696031E+00  3.034688477E+03
9.900875162E+00  3.028001953E+03
9.911054292E+00  3.022169189E+03
9.921233423E+00  3.018532471E+03
9.931412554E+00  3.015757812E+03
9.941591684E+00  3.013710205E+03
9.951770815E+00  3.010815918E+03
9.961949945E+00  3.007809814E+03
9.972129076E+00  3.003651611E+03
9.982308207E+00  2.999434570E+03
9.992487337E+00  2.994976562E+03
1.000266647E+01  2.989337646E+03
1.001284560E+01  2.982562012E+03
1.002302473E+01  2.977871826E+03
1.003320386E+01  2.974687500E+03
1.004338299E+01  2.974687988E+03
1.005356212E+01  2.972222412E+03
1.006374125E+01  2.965882324E+03
1.007392038E+01  2.960000977E+03
1.008409951E+01  2.955984375E+03
1.009427864E+01  2.953034424E+03
1.010445777E+01  2.947944824E+03
1.011463690E+01  2.941675781E+03
1.012481604E+01  2.936968018E+03
1.013499517E+01  2.933412354E+03
1.014517430E+01  2.928888916E+03
1.015535343E+01  2.923005127E+03
1.016553256E+01  2.918670898E+03
1.017571169E+01  2.917675293E+03
1.018589082E+01  2.915203369E+03
1.019606995E+01  2.909858154E+03
1.020624908E+01  2.905216064E+03
1.021642821E+01  2.899662109E+03
1.022660734E+01  2.894388428E+03
1.023678647E+01  2.892680176E+03
1.024696560E+01  2.892000977E+03
1.025714473E+01  2.890259033E+03
1.026732386E+01  2.885745850E+03
1.027750299E+01  2.880086426E+03
1.028768213E+01  2.875389160E+03
1.029786126E+01  2.872561035E+03
1.030804039E+01  2.869300293E+03
1.031821952E+01  2.865344238E+03
1.032839865E+01  2.862052246E+03
1.033857778E+01  2.860030273E+03
1.034875691E+01  2.855760010E+03
1.035893604E+01  2.851231445E+03
1.036911517E+01  2.845767090E+03
1.037929430E+01  2.840741943E+03
1.038947343E+01  2.835664551E+03
1.039965256E+01  2.829932373E+03
1.040983169E+01  2.826209473E+03
1.042001082E+01  2.826011719E+03
1.043018995E+01  2.823165039E+03
1.044036908E+01  2.817891846E+03
1.045054822E+01  2.812460449E+03
1.046072735E+01  2.807621826E+03
1.047090648E+01  2.802533447E+03
1.048108561E+01  2.797376709E+03
1.049126474E+01  2.793349121E+03
1.050144387E+01  2.790808105E+03
1.051162300E+01  2.785125000E+03
1.052180213E+01  2.780717041E+03
1.053198126E+01  2.775151611E+03
1.054216039E+01  2.769693359E+03
1.055233952E+01  2.765951904E+03
1.056251865E+01  2.764780518E+03
1.057269778E+01  2.761281006E+03
1.058287691E+01  2.759158691E+03
1.059305604E+01  2.758434570E+03
1.060323517E+01  2.755975342E+03
1.061341431E+01  2.751133545E+03
1.062359344E+01  2.745859375E+03
1.063377257E+01  2.741458008E+03
1.064395170E+01  2.734685791E+03
1.065413083E+01  2.728734619E+03
1.066430996E+01  2.722736572E+03
1.067448909E+01  2.716717041E+03
1.068466822E+01  2.711052979E+03
1.069484735E+01  2.706822754E+03
1.070502648E+01  2.705943359E+03
1.071520561E+01  2.703599365E+03
1.072538474E+01  2.700331543E+03
1.073556387E+01  2.697174561E+03
1.074574300E+01  2.691673340E+03
1.075592213E+01  2.686281738E+03
1.076610126E+01  2.681421631E+03
1.077628039E+01  2.680064941E+03
1.078645953E+01  2.678898926E+03
1.079663866E+01  2.677353271E+03
1.080681779E+01  2.673854980E+03
1.081699692E+01  2.671010498E+03
1.082717605E+01  2.668691406E+03
1.083735518E+01  2.661406006E+03
1.084753431E+01  2.652151611E+03
1.085771344E+01  2.646382812E+03
1.086789257E+01  2.644668457E+03
1.087807170E+01  2.643065918E+03
1.088825083E+01  2.640009766E+03
1.089842996E+01  2.634760254E+03
1.090860909E+01  2.630100586E+03
1.091878822E+01  2.625973633E+03
1.092896735E+01  2.622791504E+03
1.093914648E+01  2.618283936E+03
1.094932562E+01  2.613335449E+03
1.095950475E+01  2.609059082E+03
1.096968388E+01  2.606353760E+03
1.097986301E+01  2.602832520E+03
1.099004214E+01  2.600000732E+03
1.100022127E+01  2.597262695E+03
1.101040040E+01  2.594108154E+03
1.102057953E+01  2.590362549E+03
1.103075866E+01  2.587884277E+03
1.104093779E+01  2.584855225E+03
1.105111692E+01  2.580438477E+03
1.106129605E+01  2.576288330E+03
1.107147518E+01  2.572369873E+03
1.108165431E+01  2.570976562E+03
1.109183344E+01  2.570480225E+03
1.110201257E+01  2.568515381E+03
1.111219171E+01  2.564406494E+03
1.112237084E+01  2.558906006E+03
1.113254997E+01  2.554372559E+03
1.114272910E+01  2.550979492E+03
1.115290823E+01  2.549827148E+03
1.116308736E+01  2.546992188E+03
1.117326649E+01  2.542699463E+03
1.118344562E+01  2.539975098E+03
1.119362475E+01  2.537832275E+03
1.120380388E+01  2.535732178E+03
1.121398301E+01  2.532443359E+03
1.122416214E+01  2.528418701E+03
1.123434127E+01  2.524832275E+03
1.124452040E+01  2.517913574E+03
1.125469953E+01  2.509927490E+03
1.126487866E+01  2.505749756E+03
1.127505780E+01  2.502182861E+03
1.128523693E+01  2.499302246E+03
1.129541606E+01  2.497181641E+03
1.130559519E+01  2.494588379E+03
1.131577432E+01  2.491968262E+03
1.132595345E+01  2.488802002E+03
1.133613258E+01  2.484069580E+03
1.134631171E+01  2.480945068E+03
1.135649084E+01  2.479679443E+03
1.136666997E+01  2.478517822E+03
1.137684910E+01  2.474353516E+03
1.138702823E+01  2.469385010E+03
1.139720736E+01  2.466166992E+03
1.140738649E+01  2.464158447E+03
1.141756562E+01  2.462593262E+03
1.142774475E+01  2.459644287E+03
1.143792389E+01  2.454215820E+03
1.144810302E+01  2.447761230E+03
1.145828215E+01  2.445813232E+03
1.146846128E+01  2.445732910E+03
1.147864041E+01  2.446474121E+03
1.148881954E+01  2.444655518E+03
1.149899867E+01  2.437792236E+03
1.150917780E+01  2.431004883E+03
1.151935693E+01  2.427319336E+03
1.152953606E+01  2.424265625E+03
1.153971519E+01  2.423873047E+03
1.154989432E+01  2.423410889E+03
1.156007345E+01  2.421231689E+03
1.157025258E+01  2.420099121E+03
1.158043171E+01  2.420412109E+03
1.159061084E+01  2.418820801E+03
1.160078998E+01  2.414345703E+03
1.161096911E+01  2.409623779E+03
1.162114824E+01  2.403456299E+03
1.163132737E+01  2.398744629E+03
1.164150650E+01  2.396773682E+03
1.165168563E+01  2.394691650E+03
1.166186476E+01  2.392540039E+03
1.167204389E+01  2.389930176E+03
1.168222302E+01  2.386448242E+03
1.169240215E+01  2.382084229E+03
1.170258128E+01  2.378138672E+03
1.171276041E+01  2.376551514E+03
1.172293954E+01  2.375477783E+03
1.173311867E+01  2.373636475E+03
1.174329780E+01  2.371175537E+03
1.175347693E+01  2.370158936E+03
1.176365606E+01  2.369728271E+03
1.177383520E+01  2.367008301E+03
1.178401433E+01  2.362258057E+03
1.179419346E+01  2.359289307E+03
1.180437259E+01  2.357049072E+03
1.181455172E+01  2.352159424E+03
1.182473085E+01  2.347313232E+03
1.183490998E+01  2.342834229E+03
1.184508911E+01  2.340507812E+03
1.185526824E+01  2.338602539E+03
1.186544737E+01  2.336943115E+03
1.187562650E+01  2.334029785E+03
1.188580563E+01  2.331672363E+03
1.189598476E+01  2.327509521E+03
1.190616389E+01  2.323671387E+03
1.191634302E+01  2.319452393E+03
1.192652215E+01  2.316860596E+03
1.193670129E+01  2.315609375E+03
1.194688042E+01  2.314201904E+03
1.195705955E+01  2.312885498E+03
1.196723868E+01  2.310310547E+03
1.197741781E+01  2.308429199E+03
1.198759694E+01  2.306429199E+03
1.199777607E+01  2.302447266E+03
1.200795520E+01  2.296863037E+03
1.201813433E+01  2.293102051E+03
1.202831346E+01  2.289858643E+03
1.203849259E+01  2.286231689E+03
1.204867172E+01  2.283777344E+03
1.205885085E+01  2.280677002E+03
1.206902998E+01  2.277054688E+03
1.207920911E+01  2.274916016E+03
1.208938824E+01  2.273700928E+03
1.209956738E+01  2.272057129E+03
1.210974651E+01  2.268190674E+03
1.211992564E+01  2.267213135E+03
1.213010477E+01  2.267183838E+03
1.214028390E+01  2.265848145E+03
1.215046303E+01  2.262335938E+03
1.216064216E+01  2.256470215E+03
1.217082129E+01  2.250515625E+03
1.218100042E+01  2.245704590E+03
1.219117955E+01  2.243207520E+03
1.220135868E+01  2.243897705E+03
1.221153781E+01  2.241827881E+03
1.222171694E+01  2.237998779E+03
1.223189607E+01  2.234119873E+03
1.224207520E+01  2.232265137E+03
1.225225433E+01  2.231167480E+03
1.226243347E+01  2.230270508E+03
1.227261260E+01  2.227153320E+03
1.228279173E+01  2.222076660E+03
1.229297086E+01  2.217598145E+03
1.230314999E+01  2.214128174E+03
1.231332912E+01  2.211231201E+03
1.232350825E+01  2.210790771E+03
1.233368738E+01  2.210862061E+03
1.234386651E+01  2.208443604E+03
1.235404564E+01  2.204464844E+03
1.236422477E+01  2.198766602E+03
1.237440390E+01  2.194704346E+03
1.238458303E+01  2.192891846E+03
1.239476216E+01  2.191196045E+03
1.240494129E+01  2.190262939E+03
1.241512042E+01  2.189303467E+03
1.242529956E+01  2.187928955E+03
1.243547869E+01  2.185258789E+03
1.244565782E+01  2.182374512E+03
1.245583695E+01  2.178493408E+03
1.246601608E+01  2.173146729E+03
1.247619521E+01  2.171036377E+03
1.248637434E+01  2.170974854E+03
1.249655347E+01  2.170455811E+03
1.250673260E+01  2.169896240E+03
1.251691173E+01  2.166950439E+03
1.252709086E+01  2.164153320E+03
1.253726999E+01  2.161191650E+03
1.254744912E+01  2.158694092E+03
1.255762825E+01  2.156187988E+03
1.256780738E+01  2.151342529E+03
1.257798651E+01  2.147272217E+03
1.258816565E+01  2.145369873E+03
1.259834478E+01  2.143205322E+03
1.260852391E+01  2.141806641E+03
1.261870304E+01  2.140974121E+03
1.262888217E+01  2.139644775E+03
1.263906130E+01  2.138849365E+03
1.264924043E+01  2.137975098E+03
1.265941956E+01  2.135656494E+03
1.266959869E+01  2.131272461E+03
1.267977782E+01  2.126244629E+03
1.268995695E+01  2.123165039E+03
1.270013608E+01  2.121951416E+03
1.271031521E+01  2.119233154E+03
1.272049434E+01  2.116743164E+03
1.273067347E+01  2.116839600E+03
1.274085260E+01  2.117584717E+03
1.275103173E+01  2.114757812E+03
1.276121087E+01  2.110271729E+03
1.277139000E+01  2.106901367E+03
1.278156913E+01  2.104260986E+03
1.279174826E+01  2.102469482E+03
1.280192739E+01  2.099909424E+03
1.281210652E+01  2.099221924E+03
1.282228565E+01  2.097885742E+03
1.283246478E+01  2.094929688E+03
1.284264391E+01  2.090017334E+03
1.285282304E+01  2.085674316E+03
1.286300217E+01  2.085804932E+03
1.287318130E+01  2.085699463E+03
1.288336043E+01  2.083221924E+03
1.289353956E+01  2.080839355E+03
1.290371869E+01  2.079464600E+03
1.291389782E+01  2.075936035E+03
1.292407696E+01  2.072325684E+03
1.293425609E+01  2.068761963E+03
1.294443522E+01  2.067512207E+03
1.295461435E+01  2.067468750E+03
1.296479348E+01  2.066447754E+03
1.297497261E+01  2.064942627E+03
1.298515174E+01  2.062066650E+03
1.299533087E+01  2.058969971E+03
1.300551000E+01  2.057637695E+03
1.301568913E+01  2.056254639E+03
1.302586826E+01  2.054448242E+03
1.303604739E+01  2.051114258E+03
1.304622652E+01  2.048625488E+03
1.305640565E+01  2.045658203E+03
1.306658478E+01  2.042318481E+03
1.307676391E+01  2.039355469E+03
1.308694305E+01  2.039173096E+03
1.309712218E+01  2.038514282E+03
1.310730131E+01  2.035444092E+03
1.311748044E+01  2.031029419E+03
1.312765957E+01  2.028388062E+03
1.313783870E+01  2.026933105E+03
1.314801783E+01  2.026105591E+03
1.315819696E+01  2.025419434E+03
1.316837609E+01  2.023895142E+03
1.317855522E+01  2.023184326E+03
1.318873435E+01  2.023590820E+03
1.319891348E+01  2.023187744E+03
1.320909261E+01  2.020077026E+03
1.321927174E+01  2.015092651E+03
1.322945087E+01  2.011188721E+03
1.323963000E+01  2.007377686E+03
1.324980914E+01  2.003367676E+03
1.325998827E+01  2.002962891E+03
1.327016740E+01  2.003150757E+03
1.328034653E+01  2.002257690E+03
1.329052566E+01  2.000741455E+03
1.330070479E+01  1.999654663E+03
1.331088392E+01  1.998894653E+03
1.332106305E+01  1.995909912E+03
1.333124218E+01  1.991525635E+03
1.334142131E+01  1.989385254E+03
1.335160044E+01  1.987967163E+03
1.336177957E+01  1.984914795E+03
1.337195870E+01  1.981199219E+03
1.338213783E+01  1.978679688E+03
1.339231696E+01  1.978052124E+03
1.340249609E+01  1.976330566E+03
1.341267523E+01  1.973980347E+03
1.342285436E+01  1.971602051E+03
1.343303349E+01  1.969655640E+03
1.344321262E+01  1.967826782E+03
1.345339175E+01  1.966764526E+03
1.346357088E+01  1.965233643E+03
1.347375001E+01  1.964027466E+03
1.348392914E+01  1.962528198E+03
1.349410827E+01  1.961885986E+03
1.350428740E+01  1.960279297E+03
1.351446653E+01  1.957826294E+03
1.352464566E+01  1.955794434E+03
1.353482479E+01  1.955416138E+03
1.354500392E+01  1.953247925E+03
1.355518305E+01  1.950326294E+03
1.356536218E+01  1.949391968E+03
1.357554132E+01  1.949275146E+03
1.358572045E+01  1.946184448E+03
1.359589958E+01  1.943145996E+03
1.360607871E+01  1.939903931E+03
1.361625784E+01  1.936941772E+03
1.362643697E+01  1.933652832E+03
1.363661610E+01  1.930479126E+03
1.364679523E+01  1.930990112E+03
1.365697436E+01  1.929155396E+03
1.366715349E+01  1.925888306E+03
1.367733262E+01  1.924489380E+03
1.368751175E+01  1.926568604E+03
1.369769088E+01  1.929467285E+03
1.370787001E+01  1.930320557E+03
1.371804914E+01  1.926642212E+03
1.372822827E+01  1.923048706E+03
1.373840741E+01  1.919250732E+03
1.374858654E+01  1.916569946E+03
1.375876567E+01  1.914476685E+03
1.376894480E+01  1.912274658E+03
1.377912393E+01  1.911713989E+03
1.378930306E+01  1.911246460E+03
1.379948219E+01  1.908412354E+03
1.380966132E+01  1.906961426E+03
1.381984045E+01  1.907389038E+03
1.383001958E+01  1.907480225E+03
1.384019871E+01  1.905664917E+03
1.385037784E+01  1.902048950E+03
1.386055697E+01  1.897757812E+03
1.387073610E+01  1.895855957E+03
1.388091523E+01  1.894864746E+03
1.389109436E+01  1.892236816E+03
1.390127349E+01  1.891488647E+03
1.391145263E+01  1.893083862E+03
1.392163176E+01  1.894700684E+03
1.393181089E+01  1.891414185E+03
1.394199002E+01  1.887462891E+03
1.395216915E+01  1.884746948E+03
1.396234828E+01  1.882399536E+03
1.397252741E+01  1.879076172E+03
1.398270654E+01  1.878196167E+03
1.399288567E+01  1.876215210E+03
1.400306480E+01  1.875358154E+03
1.401324393E+01  1.875756592E+03
1.402342306E+01  1.876055908E+03
1.403360219E+01  1.874558594E+03
1.404378132E+01  1.872214111E+03
1.405396045E+01  1.871407471E+03
1.406413958E+01  1.871354858E+03
1.407431872E+01  1.869657837E+03
1.408449785E+01  1.867658936E+03
1.409467698E+01  1.863795898E+03
1.410485611E+01  1.861145630E+03
1.411503524E+01  1.859088989E+03
1.412521437E+01  1.857160278E+03
1.413539350E+01  1.855152222E+03
1.414557263E+01  1.854504883E+03
1.415575176E+01  1.853228394E+03
1.416593089E+01  1.849583252E+03
1.417611002E+01  1.847675659E+03
1.418628915E+01  1.846172241E+03
1.419646828E+01  1.845924072E+03
1.420664741E+01  1.845826660E+03
1.421682654E+01  1.846504883E+03
1.422700567E+01  1.846165039E+03
1.423718481E+01  1.843979126E+03
1.424736394E+01  1.842512329E+03
1.425754307E+01  1.841546631E+03
1.426772220E+01  1.837691772E+03
1.427790133E+01  1.833293823E+03
1.428808046E+01  1.831911499E+03
1.429825959E+01  1.831773560E+03
1.430843872E+01  1.830595581E+03
1.431861785E+01  1.829828247E+03
1.432879698E+01  1.828598999E+03
1.433897611E+01  1.826171875E+03
1.434915524E+01  1.825378906E+03
1.435933437E+01  1.824604736E+03
1.436951350E+01  1.822790283E+03
1.437969263E+01  1.821764038E+03
1.438987176E+01  1.820974121E+03
1.440005090E+01  1.818533936E+03
1.441023003E+01  1.816322632E+03
1.442040916E+01  1.815605591E+03
1.443058829E+01  1.813291138E+03
1.444076742E+01  1.810432129E+03
1.445094655E+01  1.808798462E+03
1.446112568E+01  1.808333374E+03
1.447130481E+01  1.808013428E+03
1.448148394E+01  1.807833252E+03
1.449166307E+01  1.805322754E+03
1.450184220E+01  1.803859497E+03
1.451202133E+01  1.804543579E+03
1.452220046E+01  1.804899536E+03
1.453237959E+01  1.802057739E+03
1.454255872E+01  1.798327271E+03
1.455273785E+01  1.796839722E+03
1.456291699E+01  1.798321777E+03
1.457309612E+01  1.799385620E+03
1.458327525E+01  1.799759277E+03
1.459345438E+01  1.799162598E+03
1.460363351E+01  1.798869141E+03
1.461381264E+01  1.798026489E+03
1.462399177E+01  1.797137207E+03
1.463417090E+01  1.795307861E+03
1.464435003E+01  1.793511719E+03
1.465452916E+01  1.789877441E+03
1.466470829E+01  1.783609375E+03
1.467488742E+01  1.779945801E+03
1.468506655E+01  1.779171509E+03
1.469524568E+01  1.781435669E+03
1.470542481E+01  1.781868164E+03
1.471560394E+01  1.780625244E+03
1.472578308E+01  1.778869019E+03
1.473596221E+01  1.778460938E+03
1.474614134E+01  1.777134644E+03
1.475632047E+01  1.775594238E+03
1.476649960E+01  1.775378174E+03
1.477667873E+01  1.775571411E+03
1.478685786E+01  1.772982910E+03
1.479703699E+01  1.770568481E+03
1.480721612E+01  1.769234375E+03
1.481739525E+01  1.767972778E+03
1.482757438E+01  1.768126343E+03
1.483775351E+01  1.768244019E+03
1.484793264E+01  1.766971069E+03
1.485811177E+01  1.765532715E+03
1.486829090E+01  1.766376465E+03
1.487847003E+01  1.765599243E+03
1.488864916E+01  1.765328369E+03
1.489882830E+01  1.764605225E+03
1.490900743E+01  1.761958496E+03
1.491918656E+01  1.757966675E+03
1.492936569E+01  1.756868286E+03
1.493954482E+01  1.757521606E+03
1.494972395E+01  1.756484619E+03
1.495990308E+01  1.755957642E+03
1.497008221E+01  1.757411621E+03
1.498026134E+01  1.756152710E+03
1.499044047E+01  1.752936646E+03
1.500061960E+01  1.751465942E+03
1.501079873E+01  1.748954712E+03
1.502097786E+01  1.745838257E+03
1.503115699E+01  1.744059570E+03
1.504133612E+01  1.744278198E+03
1.505151525E+01  1.744604492E+03
1.506169439E+01  1.744532104E+03
1.507187352E+01  1.742186646E+03
1.508205265E+01  1.738940430E+03
1.509223178E+01  1.736747314E+03
1.510241091E+01  1.737661011E+03
1.511259004E+01  1.738463257E+03
1.512276917E+01  1.737839722E+03
1.513294830E+01  1.736861084E+03
1.514312743E+01  1.734820679E+03
1.515330656E+01  1.732588745E+03
1.516348569E+01  1.732929688E+03
1.517366482E+01  1.734843384E+03
1.518384395E+01  1.735597534E+03
1.519402308E+01  1.733042358E+03
1.520420221E+01  1.730023193E+03
1.521438134E+01  1.728754272E+03
1.522456048E+01  1.726590332E+03
1.523473961E+01  1.726423828E+03
1.524491874E+01  1.725034912E+03
1.525509787E+01  1.723386475E+03
1.526527700E+01  1.723997925E+03
1.527545613E+01  1.724826050E+03
1.528563526E+01  1.723884766E+03
1.529581439E+01  1.721864868E+03
1.530599352E+01  1.721273193E+03
1.531617265E+01  1.719807007E+03
1.532635178E+01  1.717797119E+03
1.533653091E+01  1.717578369E+03
1.534671004E+01  1.718172729E+03
1.535688917E+01  1.716525269E+03
1.536706830E+01  1.715346924E+03
1.537724743E+01  1.714261475E+03
1.538742657E+01  1.713130371E+03
1.539760570E+01  1.710132324E+03
1.540778483E+01  1.708098145E+03
1.541796396E+01  1.706643433E+03
1.542814309E+01  1.704634155E+03
1.543832222E+01  1.703277832E+03
1.544850135E+01  1.703795288E+03
1.545868048E+01  1.704045410E+03
1.546885961E+01  1.702539795E+03
1.547903874E+01  1.699994263E+03
1.548921787E+01  1.698729004E+03
1.549939700E+01  1.700445557E+03
1.550957613E+01  1.701257446E+03
1.551975526E+01  1.700009766E+03
1.552993439E+01  1.698253052E+03
1.554011352E+01  1.697484253E+03
1.555029266E+01  1.696386353E+03
1.556047179E+01  1.696200073E+03
1.557065092E+01  1.695322021E+03
1.558083005E+01  1.694682129E+03
1.559100918E+01  1.693132935E+03
1.560118831E+01  1.690262573E+03
1.561136744E+01  1.688128784E+03
1.562154657E+01  1.687523926E+03
1.563172570E+01  1.687229736E+03
1.564190483E+01  1.687047119E+03
1.565208396E+01  1.686288452E+03
1.566226309E+01  1.685035645E+03
1.567244222E+01  1.684180176E+03
1.568262135E+01  1.684361572E+03
1.569280048E+01  1.683751709E+03
1.570297961E+01  1.682048218E+03
1.571315875E+01  1.682552490E+03
1.572333788E+01  1.682288574E+03
1.573351701E+01  1.680682495E+03
1.574369614E+01  1.678859985E+03
1.575387527E+01  1.677938721E+03
1.576405440E+01  1.678654419E+03
1.577423353E+01  1.679585693E+03
1.578441266E+01  1.678585571E+03
1.579459179E+01  1.676258179E+03
1.580477092E+01  1.674505737E+03
1.581495005E+01  1.672286499E+03
1.582512918E+01  1.669947021E+03
1.583530831E+01  1.668287598E+03
1.584548744E+01  1.668890015E+03
1.585566657E+01  1.670202271E+03
1.586584570E+01  1.671123657E+03
1.587602483E+01  1.668412842E+03
1.588620397E+01  1.665405884E+03
1.589638310E+01  1.664803467E+03
1.590656223E+01  1.664931641E+03
1.591674136E+01  1.664213135E+03
1.592692049E+01  1.660693848E+03
1.593709962E+01  1.658859619E+03
1.594727875E+01  1.658064575E+03
1.595745788E+01  1.656826660E+03
1.596763701E+01  1.655455078E+03
1.597781614E+01  1.656034302E+03
1.598799527E+01  1.656249268E+03
1.599817440E+01  1.656214233E+03
1.600835353E+01  1.655862061E+03
1.601853266E+01  1.654411133E+03
1.602871179E+01  1.650978516E+03
1.603889092E+01  1.649256470E+03
1.604907006E+01  1.648263550E+03
1.605924919E+01  1.648451904E+03
1.606942832E+01  1.648079224E+03
1.607960745E+01  1.647225220E+03
1.608978658E+01  1.645663696E+03
1.609996571E+01  1.642823486E+03
1.611014484E+01  1.641929443E+03
1.612032397E+01  1.641095093E+03
1.613050310E+01  1.639950195E+03
1.614068223E+01  1.640421265E+03
1.615086136E+01  1.641293579E+03
1.616104049E+01  1.640582275E+03
1.617121962E+01  1.638851196E+03
1.618139875E+01  1.638651733E+03
1.619157788E+01  1.638453979E+03
1.620175701E+01  1.637978149E+03
1.621193615E+01  1.637566406E+03
1.622211528E+01  1.636875854E+03
1.623229441E+01  1.635559326E+03
1.624247354E+01  1.634304932E+03
1.625265267E+01  1.633121826E+03
1.626283180E+01  1.632334106E+03
1.627301093E+01  1.631503174E+03
1.628319006E+01  1.631280029E+03
1.629336919E+01  1.630277588E+03
1.630354832E+01  1.629406372E+03
1.631372745E+01  1.628297485E+03
1.632390658E+01  1.626746582E+03
1.633408571E+01  1.624763550E+03
1.634426484E+01  1.625413452E+03
1.635444397E+01  1.626765259E+03
1.636462310E+01  1.626187866E+03
1.637480224E+01  1.625873535E+03
1.638498137E+01  1.625715210E+03
1.639516050E+01  1.625357788E+03
1.640533963E+01  1.622814087E+03
1.641551876E+01  1.622277344E+03
1.642569789E+01  1.621601074E+03
1.643587702E+01  1.619984497E+03
1.644605615E+01  1.617875488E+03
1.645623528E+01  1.614937988E+03
1.646641441E+01  1.613425293E+03
1.647659354E+01  1.612978149E+03
1.648677267E+01  1.612163086E+03
1.649695180E+01  1.611870117E+03
1.650713093E+01  1.613242065E+03
1.651731006E+01  1.613603516E+03
1.652748919E+01  1.611192993E+03
1.653766833E+01  1.608550171E+03
1.654784746E+01  1.608955688E+03
1.655802659E+01  1.608428833E+03
1.656820572E+01  1.608406494E+03
1.657838485E+01  1.608396606E+03
1.658856398E+01  1.607162720E+03
1.659874311E+01  1.605458252E+03
1.660892224E+01  1.606060425E+03
1.661910137E+01  1.605677368E+03
1.662928050E+01  1.602831787E+03
1.663945963E+01  1.602035400E+03
1.664963876E+01  1.601072510E+03
1.665981789E+01  1.599352173E+03
1.666999702E+01  1.597588257E+03
1.668017615E+01  1.596681396E+03
1.669035528E+01  1.594969482E+03
1.670053442E+01  1.592851685E+03
1.671071355E+01  1.592276733E+03
1.672089268E+01  1.592409180E+03
1.673107181E+01  1.593718628E+03
1.674125094E+01  1.594751587E+03
1.675143007E+01  1.593078003E+03
1.676160920E+01  1.591391357E+03
1.677178833E+01  1.591327271E+03
1.678196746E+01  1.591355957E+03
1.679214659E+01  1.589950073E+03
1.680232572E+01  1.586778320E+03
1.681250485E+01  1.586541748E+03
1.682268398E+01  1.585787842E+03
1.683286311E+01  1.585846558E+03
1.684304224E+01  1.585804321E+03
1.685322137E+01  1.585658447E+03
1.686340050E+01  1.585182861E+03
1.687357964E+01  1.584874390E+03
1.688375877E+01  1.583490112E+03
1.689393790E+01  1.582277344E+03
1.690411703E+01  1.581407349E+03
1.691429616E+01  1.579745850E+03
1.692447529E+01  1.579146484E+03
1.693465442E+01  1.578783936E+03
1.694483355E+01  1.578540894E+03
1.695501268E+01  1.578219971E+03
1.696519181E+01  1.578577759E+03
1.697537094E+01  1.579219360E+03
1.698555007E+01  1.577645996E+03
1.699572920E+01  1.575254883E+03
1.700590833E+01  1.576113403E+03
1.701608746E+01  1.575490112E+03
1.702626659E+01  1.572773193E+03
1.703644573E+01  1.571184692E+03
1.704662486E+01  1.570579224E+03
1.705680399E+01  1.570476196E+03
1.706698312E+01  1.568820312E+03
1.707716225E+01  1.569953979E+03
1.708734138E+01  1.570775269E+03
1.709752051E+01  1.569627686E+03
1.710769964E+01  1.567133545E+03
1.711787877E+01  1.566167603E+03
1.712805790E+01  1.565460815E+03
1.713823703E+01  1.562855713E+03
1.714841616E+01  1.561284180E+03
1.715859529E+01  1.560766357E+03
1.716877442E+01  1.560145508E+03
1.717895355E+01  1.559367310E+03
1.718913268E+01  1.558943237E+03
1.719931182E+01  1.557646118E+03
1.720949095E+01  1.556727539E+03
1.721967008E+01  1.556469971E+03
1.722984921E+01  1.556875732E+03
1.724002834E+01  1.555687744E+03
1.725020747E+01  1.554077148E+03
1.726038660E+01  1.553702881E+03
1.727056573E+01  1.554192871E+03
1.728074486E+01  1.555018066E+03
1.729092399E+01  1.554937012E+03
1.730110312E+01  1.553302368E+03
1.731128225E+01  1.551326782E+03
1.732146138E+01  1.550243408E+03
1.733164051E+01  1.548835571E+03
1.734181964E+01  1.547465820E+03
1.735199877E+01  1.547223267E+03
1.736217791E+01  1.546433228E+03
1.737235704E+01  1.546420654E+03
1.738253617E+01  1.547412842E+03
1.739271530E+01  1.547009033E+03
1.740289443E+01  1.546425049E+03
1.741307356E+01  1.544292725E+03
1.742325269E+01  1.542112915E+03
1.743343182E+01  1.541464233E+03
1.744361095E+01  1.541576904E+03
1.745379008E+01  1.543870850E+03
1.746396921E+01  1.545423828E+03
1.747414834E+01  1.544720337E+03
1.748432747E+01  1.542469727E+03
1.749450660E+01  1.540594727E+03
1.750468573E+01  1.540881592E+03
1.751486486E+01  1.539955811E+03
1.752504400E+01  1.538610229E+03
1.753522313E+01  1.537749268E+03
1.754540226E+01  1.535695435E+03
1.755558139E+01  1.534530884E+03
1.756576052E+01  1.535895874E+03
1.757593965E+01  1.536608154E+03
1.758611878E+01  1.534910522E+03
1.759629791E+01  1.533114258E+03
1.760647704E+01  1.533339844E+03
1.761665617E+01  1.533073242E+03
1.762683530E+01  1.531985107E+03
1.763701443E+01  1.531284302E+03
1.764719356E+01  1.530875122E+03
1.765737269E+01  1.529181885E+03
1.766755182E+01  1.526861938E+03
1.767773095E+01  1.525580933E+03
1.768791009E+01  1.524002319E+03
1.769808922E+01  1.524399048E+03
1.770826835E+01  1.524732178E+03
1.771844748E+01  1.524660522E+03
1.772862661E+01  1.524991211E+03
1.773880574E+01  1.525363892E+03
1.774898487E+01  1.524018677E+03
1.775916400E+01  1.521842163E+03
1.776934313E+01  1.521348145E+03
1.777952226E+01  1.520659546E+03
1.778970139E+01  1.520318970E+03
1.779988052E+01  1.521071045E+03
1.781005965E+01  1.521287354E+03
1.782023878E+01  1.520928833E+03
1.783041791E+01  1.521630371E+03
1.784059704E+01  1.520792236E+03
1.785077618E+01  1.519454590E+03
1.786095531E+01  1.516963257E+03
1.787113444E+01  1.516524658E+03
1.788131357E+01  1.517178955E+03
1.789149270E+01  1.516466553E+03
1.790167183E+01  1.515108887E+03
1.791185096E+01  1.513399414E+03
1.792203009E+01  1.513220215E+03
1.793220922E+01  1.513079346E+03
1.794238835E+01  1.512123291E+03
1.795256748E+01  1.512561401E+03
1.796274661E+01  1.513499390E+03
1.797292574E+01  1.512140259E+03
1.798310487E+01  1.510020874E+03
1.799328400E+01  1.508844360E+03
1.800346313E+01  1.508099487E+03
1.801364226E+01  1.507014771E+03
1.802382140E+01  1.507382812E+03
1.803400053E+01  1.509112427E+03
1.804417966E+01  1.508819092E+03
1.805435879E+01  1.509785278E+03
1.806453792E+01  1.512297852E+03
1.807471705E+01  1.516067261E+03
1.808489618E+01  1.520829346E+03
1.809507531E+01  1.525866821E+03
1.810525444E+01  1.528924072E+03
1.811543357E+01  1.530845459E+03
1.812561270E+01  1.531662354E+03
1.813579183E+01  1.530374023E+03
1.814597096E+01  1.527843872E+03
1.815615009E+01  1.524713745E+03
1.816632922E+01  1.522455444E+03
1.817650835E+01  1.518491211E+03
1.818668749E+01  1.513596191E+03
1.819686662E+01  1.509571045E+03
1.820704575E+01  1.505405640E+03
1.821722488E+01  1.501492188E+03
1.822740401E+01  1.498353760E+03
1.823758314E+01  1.494639893E+03
1.824776227E+01  1.491723633E+03
1.825794140E+01  1.492262573E+03
1.826812053E+01  1.492045044E+03
1.827829966E+01  1.491405029E+03
1.828847879E+01  1.492196289E+03
1.829865792E+01  1.492260132E+03
1.830883705E+01  1.489143555E+03
1.831901618E+01  1.486435669E+03
1.832919531E+01  1.485626709E+03
1.833937444E+01  1.484611206E+03
1.834955358E+01  1.484208008E+03
1.835973271E+01  1.483269287E+03
1.836991184E+01  1.482698486E+03
1.838009097E+01  1.482634644E+03
1.839027010E+01  1.481312500E+03
1.840044923E+01  1.478427246E+03
1.841062836E+01  1.477593262E+03
1.842080749E+01  1.478569824E+03
1.843098662E+01  1.479091187E+03
1.844116575E+01  1.477226074E+03
1.845134488E+01  1.476797607E+03
1.846152401E+01  1.478205933E+03
1.847170314E+01  1.478057739E+03
1.848188227E+01  1.477437012E+03
1.849206140E+01  1.476706055E+03
1.850224053E+01  1.475448975E+03
1.851241967E+01  1.474780396E+03
1.852259880E+01  1.472637695E+03
1.853277793E+01  1.469752075E+03
1.854295706E+01  1.470875854E+03
1.855313619E+01  1.473114136E+03
1.856331532E+01  1.472231445E+03
1.857349445E+01  1.471813477E+03
1.858367358E+01  1.473082397E+03
1.859385271E+01  1.471759155E+03
1.860403184E+01  1.468561523E+03
1.861421097E+01  1.467694702E+03
1.862439010E+01  1.467553467E+03
1.863456923E+01  1.466684204E+03
1.864474836E+01  1.465759399E+03
1.865492749E+01  1.464309204E+03
1.866510662E+01  1.463549561E+03
1.867528576E+01  1.463556396E+03
1.868546489E+01  1.463771484E+03
1.869564402E+01  1.462439819E+03
1.870582315E+01  1.461426147E+03
1.871600228E+01  1.461025513E+03
1.872618141E+01  1.460244873E+03
1.873636054E+01  1.459662598E+03
1.874653967E+01  1.459834595E+03
1.875671880E+01  1.460138916E+03
1.876689793E+01  1.459415039E+03
1.877707706E+01  1.459322632E+03
1.878725619E+01  1.459058960E+03
1.879743532E+01  1.459124512E+03
1.880761445E+01  1.459848267E+03
1.881779358E+01  1.458576660E+03
1.882797271E+01  1.455866943E+03
1.883815185E+01  1.453626953E+03
1.884833098E+01  1.455225586E+03
1.885851011E+01  1.455070557E+03
1.886868924E+01  1.452196777E+03
1.887886837E+01  1.451045776E+03
1.888904750E+01  1.450572876E+03
1.889922663E+01  1.450991089E+03
1.890940576E+01  1.451004761E+03
1.891958489E+01  1.448694092E+03
1.892976402E+01  1.448499634E+03
1.893994315E+01  1.450614990E+03
1.895012228E+01  1.450314697E+03
1.896030141E+01  1.450433960E+03
1.897048054E+01  1.450942261E+03
1.898065967E+01  1.451297729E+03
1.899083880E+01  1.451584229E+03
1.900101793E+01  1.452952148E+03
1.901119707E+01  1.454156128E+03
1.902137620E+01  1.452781494E+03
1.903155533E+01  1.451104492E+03
1.904173446E+01  1.451063110E+03
1.905191359E+01  1.453665039E+03
1.906209272E+01  1.455735474E+03
1.907227185E+01  1.456751343E+03
1.908245098E+01  1.456254761E+03
1.909263011E+01  1.455244263E+03
1.910280924E+01  1.454458984E+03
1.911298837E+01  1.454537842E+03
1.912316750E+01  1.455426880E+03
1.913334663E+01  1.456212402E+03
1.914352576E+01  1.455559326E+03
1.915370489E+01  1.454233032E+03
1.916388402E+01  1.453918457E+03
1.917406316E+01  1.453169800E+03
1.918424229E+01  1.452814209E+03
1.919442142E+01  1.451382935E+03
1.920460055E+01  1.449441040E+03
1.921477968E+01  1.447695312E+03
1.922495881E+01  1.447269653E+03
1.923513794E+01  1.447985840E+03
1.924531707E+01  1.445580200E+03
1.925549620E+01  1.442215698E+03
1.926567533E+01  1.439080444E+03
1.927585446E+01  1.437241821E+03
1.928603359E+01  1.436496948E+03
1.929621272E+01  1.436228516E+03
1.930639185E+01  1.435183594E+03
1.931657098E+01  1.432845337E+03
1.932675011E+01  1.431441650E+03
1.933692925E+01  1.431346558E+03
1.934710838E+01  1.431649780E+03
1.935728751E+01  1.431879395E+03
1.936746664E+01  1.432004517E+03
1.937764577E+01  1.430026489E+03
1.938782490E+01  1.429471069E+03
1.939800403E+01  1.428959473E+03
1.940818316E+01  1.427925293E+03
1.941836229E+01  1.427233887E+03
1.942854142E+01  1.426026245E+03
1.943872055E+01  1.425841797E+03
1.944889968E+01  1.426119629E+03
1.945907881E+01  1.426473511E+03
1.946925794E+01  1.426413818E+03
1.947943707E+01  1.425505737E+03
1.948961620E+01  1.424828735E+03
1.949979534E+01  1.423955566E+03
1.950997447E+01  1.421942139E+03
1.952015360E+01  1.421182495E+03
1.953033273E+01  1.421679199E+03
1.954051186E+01  1.421396362E+03
1.955069099E+01  1.422070923E+03
1.956087012E+01  1.421307251E+03
1.957104925E+01  1.420581421E+03
1.958122838E+01  1.421391724E+03
1.959140751E+01  1.421843506E+03
1.960158664E+01  1.422118164E+03
1.961176577E+01  1.422990112E+03
1.962194490E+01  1.425666870E+03
1.963212403E+01  1.425874023E+03
1.964230316E+01  1.425925171E+03
1.965248229E+01  1.427016479E+03
1.966266143E+01  1.426708740E+03
1.967284056E+01  1.425346191E+03
1.968301969E+01  1.423687622E+03
1.969319882E+01  1.421938354E+03
1.970337795E+01  1.420421875E+03
1.971355708E+01  1.420977905E+03
1.972373621E+01  1.420115601E+03
1.973391534E+01  1.417018799E+03
1.974409447E+01  1.414626465E+03
1.975427360E+01  1.413549805E+03
1.976445273E+01  1.413252441E+03
1.977463186E+01  1.412754517E+03
1.978481099E+01  1.412229980E+03
1.979499012E+01  1.410896118E+03
1.980516925E+01  1.409291748E+03
1.981534838E+01  1.407471313E+03
1.982552752E+01  1.405258545E+03
1.983570665E+01  1.404188477E+03
1.984588578E+01  1.405950073E+03
1.985606491E+01  1.408139648E+03
1.986624404E+01  1.408649780E+03
1.987642317E+01  1.408315430E+03
1.988660230E+01  1.405681519E+03
1.989678143E+01  1.405093872E+03
1.990696056E+01  1.406455444E+03
1.991713969E+01  1.407628174E+03
1.992731882E+01  1.407448486E+03
1.993749795E+01  1.406803467E+03
1.994767708E+01  1.405506348E+03
1.995785621E+01  1.403879517E+03
1.996803534E+01  1.403609009E+03
1.997821447E+01  1.402920898E+03
1.998839360E+01  1.401760864E+03
1.999857274E+01  1.401917480E+03
2.000875187E+01  1.402208618E+03
2.001893100E+01  1.400779785E+03
2.002911013E+01  1.399974731E+03
2.003928926E+01  1.399556274E+03
2.004946839E+01  1.396362427E+03
2.005964752E+01  1.393998169E+03
2.006982665E+01  1.393181763E+03
2.008000578E+01  1.392420166E+03
2.009018491E+01  1.392659546E+03
2.010036404E+01  1.393212402E+03
2.011054317E+01  1.392468506E+03
2.012072230E+01  1.391705688E+03
2.013090143E+01  1.392785889E+03
2.014108056E+01  1.393229004E+03
2.015125969E+01  1.392921997E+03
2.016143883E+01  1.392390991E+03
2.017161796E+01  1.392453491E+03
2.018179709E+01  1.391527954E+03
2.019197622E+01  1.389765625E+03
2.020215535E+01  1.388408936E+03
2.021233448E+01  1.387593140E+03
2.022251361E+01  1.387050903E+03
2.023269274E+01  1.388143921E+03
2.024287187E+01  1.389640747E+03
2.025305100E+01  1.389626953E+03
2.026323013E+01  1.389951172E+03
2.027340926E+01  1.391305664E+03
2.028358839E+01  1.391749756E+03
2.029376752E+01  1.392417603E+03
2.030394665E+01  1.391763428E+03
2.031412578E+01  1.391903442E+03
2.032430492E+01  1.391527222E+03
2.033448405E+01  1.390008911E+03
2.034466318E+01  1.389820923E+03
2.035484231E+01  1.390506714E+03
2.036502144E+01  1.388595581E+03
2.037520057E+01  1.385713989E+03
2.038537970E+01  1.385394897E+03
2.039555883E+01  1.386137695E+03
2.040573796E+01  1.385618530E+03
2.041591709E+01  1.383127197E+03
2.042609622E+01  1.382046753E+03
2.043627535E+01  1.382504150E+03
2.044645448E+01  1.383326050E+03
2.045663361E+01  1.382625122E+03
2.046681274E+01  1.381012085E+03
2.047699187E+01  1.381993042E+03
2.048717101E+01  1.383221313E+03
2.049735014E+01  1.382356445E+03
2.050752927E+01  1.380090576E+03
2.051770840E+01  1.379035522E+03
2.052788753E+01  1.379194092E+03
2.053806666E+01  1.379088379E+03
2.054824579E+01  1.378387085E+03
2.055842492E+01  1.376092529E+03
2.056860405E+01  1.375207764E+03
2.057878318E+01  1.375145630E+03
2.058896231E+01  1.375453491E+03
2.059914144E+01  1.376721069E+03
2.060932057E+01  1.377918091E+03
2.061949970E+01  1.379399536E+03
2.062967883E+01  1.381647705E+03
2.063985796E+01  1.383622925E+03
2.065003710E+01  1.382365112E+03
2.066021623E+01  1.381410034E+03
2.067039536E+01  1.382199219E+03
2.068057449E+01  1.382067261E+03
2.069075362E+01  1.380524414E+03
2.070093275E+01  1.376947876E+03
2.071111188E+01  1.373495850E+03
2.072129101E+01  1.370603516E+03
2.073147014E+01  1.369885254E+03
2.074164927E+01  1.368456909E+03
2.075182840E+01  1.367135620E+03
2.076200753E+01  1.365691895E+03
2.077218666E+01  1.364677612E+03
2.078236579E+01  1.364805054E+03
2.079254492E+01  1.365302612E+03
2.080272405E+01  1.365471313E+03
2.081290319E+01  1.365331177E+03
2.082308232E+01  1.365240234E+03
2.083326145E+01  1.364351685E+03
2.084344058E+01  1.361746582E+03
2.085361971E+01  1.359687988E+03
2.086379884E+01  1.358793213E+03
2.087397797E+01  1.357629150E+03
2.088415710E+01  1.355867554E+03
2.089433623E+01  1.356032959E+03
2.090451536E+01  1.357139038E+03
2.091469449E+01  1.358876953E+03
2.092487362E+01  1.359629761E+03
2.093505275E+01  1.358117554E+03
2.094523188E+01  1.356561279E+03
2.095541101E+01  1.355986816E+03
2.096559014E+01  1.355901733E+03
2.097576927E+01  1.354801025E+03
2.098594841E+01  1.353915527E+03
2.099612754E+01  1.354000122E+03
2.100630667E+01  1.353865845E+03
2.101648580E+01  1.353583374E+03
2.102666493E+01  1.351776733E+03
2.103684406E+01  1.350535767E+03
2.104702319E+01  1.349970093E+03
2.105720232E+01  1.349070679E+03
2.106738145E+01  1.347956787E+03
2.107756058E+01  1.346332275E+03
2.108773971E+01  1.347196045E+03
2.109791884E+01  1.348382812E+03
2.110809797E+01  1.348316406E+03
2.111827710E+01  1.347565308E+03
2.112845623E+01  1.346235107E+03
2.113863536E+01  1.344458252E+03
2.114881450E+01  1.343850708E+03
2.115899363E+01  1.344390503E+03
2.116917276E+01  1.345195190E+03
2.117935189E+01  1.346361694E+03
2.118953102E+01  1.345377686E+03
2.119971015E+01  1.343978271E+03
2.120988928E+01  1.344173340E+03
2.122006841E+01  1.344307007E+03
2.123024754E+01  1.344392334E+03
2.124042667E+01  1.342529053E+03
2.125060580E+01  1.339843384E+03
2.126078493E+01  1.338313354E+03
2.127096406E+01  1.338507202E+03
2.128114319E+01  1.338784302E+03
2.129132232E+01  1.339337769E+03
2.130150145E+01  1.340891724E+03
2.131168059E+01  1.340515991E+03
2.132185972E+01  1.339434814E+03
2.133203885E+01  1.338365234E+03
2.134221798E+01  1.336361450E+03
2.135239711E+01  1.334366333E+03
2.136257624E+01  1.333043823E+03
2.137275537E+01  1.332881470E+03
2.138293450E+01  1.332393188E+03
2.139311363E+01  1.333297485E+03
2.140329276E+01  1.333277466E+03
2.141347189E+01  1.333019287E+03
2.142365102E+01  1.333246948E+03
2.143383015E+01  1.332596680E+03
2.144400928E+01  1.333312866E+03
2.145418841E+01  1.334198486E+03
2.146436754E+01  1.334780396E+03
2.147454668E+01  1.334525513E+03
2.148472581E+01  1.333149414E+03
2.149490494E+01  1.331676636E+03
2.150508407E+01  1.331076416E+03
2.151526320E+01  1.330616455E+03
2.152544233E+01  1.330641968E+03
2.153562146E+01  1.331260864E+03
2.154580059E+01  1.329830566E+03
2.155597972E+01  1.328310791E+03
2.156615885E+01  1.326893066E+03
2.157633798E+01  1.325955444E+03
2.158651711E+01  1.326401123E+03
2.159669624E+01  1.326552734E+03
2.160687537E+01  1.325599854E+03
2.161705450E+01  1.325912720E+03
2.162723363E+01  1.325979126E+03
2.163741277E+01  1.325516602E+03
2.164759190E+01  1.325057007E+03
2.165777103E+01  1.324574341E+03
2.166795016E+01  1.324760376E+03
2.167812929E+01  1.326407959E+03
2.168830842E+01  1.327243530E+03
2.169848755E+01  1.326078125E+03
2.170866668E+01  1.324753296E+03
2.171884581E+01  1.323747681E+03
2.172902494E+01  1.323021606E+03
2.173920407E+01  1.322350708E+03
2.174938320E+01  1.322214111E+03
2.175956233E+01  1.322821777E+03
2.176974146E+01  1.322932739E+03
2.177992059E+01  1.322608643E+03
2.179009972E+01  1.322694214E+03
2.180027886E+01  1.322781250E+03
2.181045799E+01  1.323234497E+03
2.182063712E+01  1.322595337E+03
2.183081625E+01  1.321542236E+03
2.184099538E+01  1.321716187E+03
2.185117451E+01  1.322117065E+03
2.186135364E+01  1.321411865E+03
2.187153277E+01  1.319623779E+03
2.188171190E+01  1.317944580E+03
2.189189103E+01  1.318129272E+03
2.190207016E+01  1.317317871E+03
2.191224929E+01  1.316569458E+03
2.192242842E+01  1.316323608E+03
2.193260755E+01  1.316041016E+03
2.194278668E+01  1.316580444E+03
2.195296581E+01  1.316612427E+03
2.196314495E+01  1.316038452E+03
2.197332408E+01  1.315728149E+03
2.198350321E+01  1.315442383E+03
2.199368234E+01  1.314576904E+03
2.200386147E+01  1.313418091E+03
2.201404060E+01  1.312899414E+03
2.202421973E+01  1.312575073E+03
2.203439886E+01  1.311894043E+03
2.204457799E+01  1.310675903E+03
2.205475712E+01  1.310885376E+03
2.206493625E+01  1.312031250E+03
2.207511538E+01  1.312616089E+03
2.208529451E+01  1.312146362E+03
2.209547364E+01  1.310137085E+03
2.210565277E+01  1.307724976E+03
2.211583190E+01  1.307778931E+03
2.212601103E+01  1.309359497E+03
2.213619017E+01  1.309563965E+03
2.214636930E+01  1.309879150E+03
2.215654843E+01  1.309630371E+03
2.216672756E+01  1.308224609E+03
2.217690669E+01  1.308732422E+03
2.218708582E+01  1.308382080E+03
2.219726495E+01  1.307887329E+03
2.220744408E+01  1.308272583E+03
2.221762321E+01  1.306698975E+03
2.222780234E+01  1.304042603E+03
2.223798147E+01  1.303268677E+03
2.224816060E+01  1.304133179E+03
2.225833973E+01  1.304070068E+03
2.226851886E+01  1.303869873E+03
2.227869799E+01  1.303402344E+03
2.228887712E+01  1.302925171E+03
2.229905626E+01  1.303151611E+03
2.230923539E+01  1.302323730E+03
2.231941452E+01  1.301354004E+03
2.232959365E+01  1.300362549E+03
2.233977278E+01  1.300396729E+03
2.234995191E+01  1.301695923E+03
2.236013104E+01  1.301195068E+03
2.237031017E+01  1.299144775E+03
2.238048930E+01  1.297807129E+03
2.239066843E+01  1.298009888E+03
2.240084756E+01  1.299558594E+03
2.241102669E+01  1.300456909E+03
2.242120582E+01  1.300357788E+03
2.243138495E+01  1.299273071E+03
2.244156408E+01  1.297630493E+03
2.245174321E+01  1.296592651E+03
2.246192235E+01  1.296667969E+03
2.247210148E+01  1.296365845E+03
2.248228061E+01  1.296332886E+03
2.249245974E+01  1.298079712E+03
2.250263887E+01  1.297642944E+03
2.251281800E+01  1.295699463E+03
2.252299713E+01  1.293680054E+03
2.253317626E+01  1.292208130E+03
2.254335539E+01  1.292142822E+03
2.255353452E+01  1.290853882E+03
2.256371365E+01  1.289079590E+03
2.257389278E+01  1.288564331E+03
2.258407191E+01  1.288917725E+03
2.259425104E+01  1.288767700E+03
2.260443017E+01  1.289451050E+03
2.261460930E+01  1.290609131E+03
2.262478844E+01  1.289285522E+03
2.263496757E+01  1.288480713E+03
2.264514670E+01  1.288050049E+03
2.265532583E+01  1.287489868E+03
2.266550496E+01  1.288342407E+03
2.267568409E+01  1.288657227E+03
2.268586322E+01  1.287721802E+03
2.269604235E+01  1.286092651E+03
2.270622148E+01  1.284883545E+03
2.271640061E+01  1.284928345E+03
2.272657974E+01  1.285496094E+03
2.273675887E+01  1.286267822E+03
2.274693800E+01  1.286377563E+03
2.275711713E+01  1.286560669E+03
2.276729626E+01  1.286210449E+03
2.277747539E+01  1.285067017E+03
2.278765453E+01  1.285074219E+03
2.279783366E+01  1.285105591E+03
2.280801279E+01  1.284207642E+03
2.281819192E+01  1.283106567E+03
2.282837105E+01  1.283346680E+03
2.283855018E+01  1.282922974E+03
2.284872931E+01  1.281073608E+03
2.285890844E+01  1.280526001E+03
2.286908757E+01  1.281062134E+03
2.287926670E+01  1.282310547E+03
2.288944583E+01  1.282812378E+03
2.289962496E+01  1.281613892E+03
2.290980409E+01  1.280265381E+03
2.291998322E+01  1.278623169E+03
2.293016235E+01  1.277542969E+03
2.294034148E+01  1.277070801E+03
2.295052062E+01  1.277718872E+03
2.296069975E+01  1.278174194E+03
2.297087888E+01  1.278285400E+03
2.298105801E+01  1.279453491E+03
2.299123714E+01  1.278955322E+03
2.300141627E+01  1.278716797E+03
2.301159540E+01  1.278637573E+03
2.302177453E+01  1.276895508E+03
2.303195366E+01  1.275475220E+03
2.304213279E+01  1.275972412E+03
2.305231192E+01  1.276768921E+03
2.306249105E+01  1.277652710E+03
2.307267018E+01  1.279026367E+03
2.308284931E+01  1.278617676E+03
2.309302844E+01  1.277722412E+03
2.310320757E+01  1.277527710E+03
2.311338670E+01  1.275988403E+03
2.312356584E+01  1.275164551E+03
2.313374497E+01  1.276880615E+03
2.314392410E+01  1.276930176E+03
2.315410323E+01  1.274492554E+03
2.316428236E+01  1.272840210E+03
2.317446149E+01  1.272984375E+03
2.318464062E+01  1.272830566E+03
2.319481975E+01  1.272530151E+03
2.320499888E+01  1.272352051E+03
2.321517801E+01  1.272194336E+03
2.322535714E+01  1.272170044E+03
2.323553627E+01  1.270888916E+03
2.324571540E+01  1.270876099E+03
2.325589453E+01  1.272155884E+03
2.326607366E+01  1.272003784E+03
2.327625279E+01  1.271133667E+03
2.328643193E+01  1.271700195E+03
2.329661106E+01  1.272788330E+03
2.330679019E+01  1.272532959E+03
2.331696932E+01  1.272226929E+03
2.332714845E+01  1.271753540E+03
2.333732758E+01  1.270577637E+03
2.334750671E+01  1.270443848E+03
2.335768584E+01  1.271428711E+03
2.336786497E+01  1.273825439E+03
2.337804410E+01  1.275470825E+03
2.338822323E+01  1.276762939E+03
2.339840236E+01  1.277447876E+03
2.340858149E+01  1.279123535E+03
2.341876062E+01  1.281956665E+03
2.342893975E+01  1.285432983E+03
2.343911888E+01  1.288992676E+03
2.344929802E+01  1.292672363E+03
2.345947715E+01  1.296915283E+03
2.346965628E+01  1.301574341E+03
2.347983541E+01  1.305095947E+03
2.349001454E+01  1.307038208E+03
2.350019367E+01  1.307996582E+03
2.351037280E+01  1.307833740E+03
2.352055193E+01  1.306214233E+03
2.353073106E+01  1.303571533E+03
2.354091019E+01  1.299720459E+03
2.355108932E+01  1.295667725E+03
2.356126845E+01  1.292464233E+03
2.357144758E+01  1.288824341E+03
2.358162671E+01  1.284216553E+03
2.359180584E+01  1.280511597E+03
2.360198497E+01  1.276136963E+03
2.361216411E+01  1.272558472E+03
2.362234324E+01  1.271316528E+03
2.363252237E+01  1.270058960E+03
2.364270150E+01  1.268936035E+03
2.365288063E+01  1.268046387E+03
2.366305976E+01  1.266282959E+03
2.367323889E+01  1.264203491E+03
2.368341802E+01  1.262827881E+03
2.369359715E+01  1.262187744E+03
2.370377628E+01  1.261510864E+03
2.371395541E+01  1.260623779E+03
2.372413454E+01  1.259103027E+03
2.373431367E+01  1.257658813E+03
2.374449280E+01  1.257371826E+03
2.375467193E+01  1.256154663E+03
2.376485106E+01  1.253830811E+03
2.377503020E+01  1.252071411E+03
2.378520933E+01  1.250717773E+03
2.379538846E+01  1.249736328E+03
2.380556759E+01  1.248785400E+03
2.381574672E+01  1.246696899E+03
2.382592585E+01  1.245982788E+03
2.383610498E+01  1.245282104E+03
2.384628411E+01  1.243401489E+03
2.385646324E+01  1.241620728E+03
2.386664237E+01  1.240622681E+03
2.387682150E+01  1.240141357E+03
2.388700063E+01  1.241165161E+03
2.389717976E+01  1.241500244E+03
2.390735889E+01  1.241028687E+03
2.391753802E+01  1.241474976E+03
2.392771715E+01  1.241812378E+03
2.393789629E+01  1.241797119E+03
2.394807542E+01  1.241363037E+03
2.395825455E+01  1.241481323E+03
2.396843368E+01  1.241985596E+03
2.397861281E+01  1.242450806E+03
2.398879194E+01  1.243241455E+03
2.399897107E+01  1.242875977E+03
2.400915020E+01  1.242444824E+03
2.401932933E+01  1.242235840E+03
2.402950846E+01  1.241874390E+03
2.403968759E+01  1.241529907E+03
2.404986672E+01  1.240409302E+03
2.406004585E+01  1.239800659E+03
2.407022498E+01  1.240139282E+03
2.408040411E+01  1.239657715E+03
2.409058324E+01  1.239319580E+03
2.410076237E+01  1.239228394E+03
2.411094151E+01  1.238228638E+03
2.412112064E+01  1.236902710E+03
2.413129977E+01  1.237215454E+03
2.414147890E+01  1.238348877E+03
2.415165803E+01  1.237935791E+03
2.416183716E+01  1.238552002E+03
2.417201629E+01  1.238707764E+03
2.418219542E+01  1.238128418E+03
2.419237455E+01  1.237743286E+03
2.420255368E+01  1.236567505E+03
2.421273281E+01  1.237947266E+03
2.422291194E+01  1.240463867E+03
2.423309107E+01  1.240153320E+03
2.424327020E+01  1.237719727E+03
2.425344933E+01  1.235561768E+03
2.426362846E+01  1.235207397E+03
2.427380760E+01  1.235439941E+03
2.428398673E+01  1.236023071E+03
2.429416586E+01  1.235619873E+03
2.430434499E+01  1.233595825E+03
2.431452412E+01  1.231930786E+03
2.432470325E+01  1.230930542E+03
2.433488238E+01  1.229964722E+03
2.434506151E+01  1.229657227E+03
2.435524064E+01  1.229043701E+03
2.436541977E+01  1.226927490E+03
2.437559890E+01  1.225046997E+03
2.438577803E+01  1.225107422E+03
2.439595716E+01  1.225880005E+03
2.440613629E+01  1.226041016E+03
2.441631542E+01  1.225985229E+03
2.442649455E+01  1.225545410E+03
2.443667369E+01  1.224651001E+03
2.444685282E+01  1.222888794E+03
2.445703195E+01  1.220571899E+03
2.446721108E+01  1.218919189E+03
2.447739021E+01  1.217655640E+03
2.448756934E+01  1.217289429E+03
2.449774847E+01  1.217371338E+03
2.450792760E+01  1.217366577E+03
2.451810673E+01  1.216619995E+03
2.452828586E+01  1.214918579E+03
2.453846499E+01  1.212856934E+03
2.454864412E+01  1.212157959E+03
2.455882325E+01  1.213329834E+03
2.456900238E+01  1.212976318E+03
2.457918151E+01  1.210536987E+03
2.458936064E+01  1.209099609E+03
2.459953978E+01  1.208846436E+03
2.460971891E+01  1.209522827E+03
2.461989804E+01  1.210172363E+03
2.463007717E+01  1.208104248E+03
2.464025630E+01  1.206851807E+03
2.465043543E+01  1.207200928E+03
2.466061456E+01  1.206643066E+03
2.467079369E+01  1.204864014E+03
2.468097282E+01  1.203091919E+03
2.469115195E+01  1.202830444E+03
2.470133108E+01  1.203360229E+03
2.471151021E+01  1.202300537E+03
2.472168934E+01  1.200583984E+03
2.473186847E+01  1.199703003E+03
2.474204760E+01  1.199425049E+03
2.475222673E+01  1.199071777E+03
2.476240587E+01  1.198091675E+03
2.477258500E+01  1.197204712E+03
2.478276413E+01  1.196306396E+03
2.479294326E+01  1.196828003E+03
2.480312239E+01  1.196330688E+03
2.481330152E+01  1.194580444E+03
2.482348065E+01  1.193325684E+03
2.483365978E+01  1.193661011E+03
2.484383891E+01  1.194675293E+03
2.485401804E+01  1.193590210E+03
2.486419717E+01  1.191853394E+03
2.487437630E+01  1.191783691E+03
2.488455543E+01  1.191447876E+03
2.489473456E+01  1.190342896E+03
2.490491369E+01  1.189350098E+03
2.491509282E+01  1.188081665E+03
2.492527196E+01  1.186623291E+03
2.493545109E+01  1.185954834E+03
2.494563022E+01  1.186760986E+03
2.495580935E+01  1.187507690E+03
2.496598848E+01  1.187013916E+03
2.497616761E+01  1.186280640E+03
2.498634674E+01  1.186195679E+03
2.499652587E+01  1.186309448E+03
2.500670500E+01  1.186564819E+03
2.501688413E+01  1.188174438E+03
2.502706326E+01  1.189185913E+03
2.503724239E+01  1.187676758E+03
2.504742152E+01  1.185529053E+03
2.505760065E+01  1.185510254E+03
2.506777978E+01  1.186142944E+03
2.507795891E+01  1.183998291E+03
2.508813804E+01  1.181096191E+03
2.509831718E+01  1.179717529E+03
2.510849631E+01  1.179226807E+03
2.511867544E+01  1.178792114E+03
2.512885457E+01  1.178315063E+03
2.513903370E+01  1.177653809E+03
2.514921283E+01  1.178353516E+03
2.515939196E+01  1.178205078E+03
2.516957109E+01  1.177319702E+03
2.517975022E+01  1.177399414E+03
2.518992935E+01  1.177326782E+03
2.520010848E+01  1.177050659E+03
2.521028761E+01  1.177677856E+03
2.522046674E+01  1.178052979E+03
2.523064587E+01  1.176666138E+03
2.524082500E+01  1.175041382E+03
2.525100413E+01  1.173473511E+03
2.526118327E+01  1.172315552E+03
2.527136240E+01  1.171724854E+03
2.528154153E+01  1.170404297E+03
2.529172066E+01  1.168688599E+03
2.530189979E+01  1.167929077E+03
2.531207892E+01  1.168673950E+03
2.532225805E+01  1.168904907E+03
2.533243718E+01  1.168486938E+03
2.534261631E+01  1.168180054E+03
2.535279544E+01  1.169130371E+03
2.536297457E+01  1.169696411E+03
2.537315370E+01  1.168462158E+03
2.538333283E+01  1.166703979E+03
2.539351196E+01  1.165955444E+03
2.540369109E+01  1.166112671E+03
2.541387022E+01  1.165498413E+03
2.542404936E+01  1.165075928E+03
2.543422849E+01  1.164681030E+03
2.544440762E+01  1.163440308E+03
2.545458675E+01  1.161846558E+03
2.546476588E+01  1.159680664E+03
2.547494501E+01  1.158001221E+03
2.548512414E+01  1.158590698E+03
2.549530327E+01  1.159802979E+03
2.550548240E+01  1.159718628E+03
2.551566153E+01  1.159531006E+03
2.552584066E+01  1.159757324E+03
2.553601979E+01  1.159851318E+03
2.554619892E+01  1.158745850E+03
2.555637805E+01  1.157483154E+03
2.556655718E+01  1.156559082E+03
2.557673631E+01  1.155011475E+03
2.558691545E+01  1.152668335E+03
2.559709458E+01  1.150630371E+03
2.560727371E+01  1.151125732E+03
2.561745284E+01  1.153204834E+03
2.562763197E+01  1.153792358E+03
2.563781110E+01  1.154345093E+03
2.564799023E+01  1.154917847E+03
2.565816936E+01  1.153918213E+03
2.566834849E+01  1.153543335E+03
2.567852762E+01  1.153938232E+03
2.568870675E+01  1.152574951E+03
2.569888588E+01  1.150455322E+03
2.570906501E+01  1.149516357E+03
2.571924414E+01  1.149740845E+03
2.572942327E+01  1.149160034E+03
2.573960240E+01  1.148452881E+03
2.574978154E+01  1.148880249E+03
2.575996067E+01  1.149725464E+03
2.577013980E+01  1.149826782E+03
2.578031893E+01  1.147912842E+03
2.579049806E+01  1.145724365E+03
2.580067719E+01  1.145531006E+03
2.581085632E+01  1.146612061E+03
2.582103545E+01  1.147527344E+03
2.583121458E+01  1.147437622E+03
2.584139371E+01  1.145121460E+03
2.585157284E+01  1.143859131E+03
2.586175197E+01  1.144444214E+03
2.587193110E+01  1.145256470E+03
2.588211023E+01  1.146118042E+03
2.589228936E+01  1.145581665E+03
2.590246849E+01  1.143771606E+03
2.591264763E+01  1.142817749E+03
2.592282676E+01  1.143976685E+03
2.593300589E+01  1.144434204E+03
2.594318502E+01  1.143884277E+03
2.595336415E+01  1.142522339E+03
2.596354328E+01  1.140120728E+03
2.597372241E+01  1.138551880E+03
2.598390154E+01  1.139232910E+03
2.599408067E+01  1.141203247E+03
2.600425980E+01  1.142008423E+03
2.601443893E+01  1.141210693E+03
2.602461806E+01  1.140358643E+03
2.603479719E+01  1.140417847E+03
2.604497632E+01  1.139717651E+03
2.605515545E+01  1.138461670E+03
2.606533458E+01  1.138025269E+03
2.607551372E+01  1.138208008E+03
2.608569285E+01  1.138231079E+03
2.609587198E+01  1.136612427E+03
2.610605111E+01  1.135923706E+03
2.611623024E+01  1.137210815E+03
2.612640937E+01  1.136093750E+03
2.613658850E+01  1.134073730E+03
2.614676763E+01  1.134647583E+03
2.615694676E+01  1.134847168E+03
2.616712589E+01  1.133162354E+03
2.617730502E+01  1.131158081E+03
2.618748415E+01  1.130303589E+03
2.619766328E+01  1.129933838E+03
2.620784241E+01  1.129737427E+03
2.621802154E+01  1.129289673E+03
2.622820067E+01  1.129176758E+03
2.623837980E+01  1.129755249E+03
2.624855894E+01  1.129545044E+03
2.625873807E+01  1.128444946E+03
2.626891720E+01  1.127560791E+03
2.627909633E+01  1.126140625E+03
2.628927546E+01  1.124212402E+03
2.629945459E+01  1.124341675E+03
2.630963372E+01  1.124589478E+03
2.631981285E+01  1.123716309E+03
2.632999198E+01  1.123730225E+03
2.634017111E+01  1.124130981E+03
2.635035024E+01  1.123818970E+03
2.636052937E+01  1.123777466E+03
2.637070850E+01  1.124512085E+03
2.638088763E+01  1.124105469E+03
2.639106676E+01  1.122711670E+03
2.640124589E+01  1.122068970E+03
2.641142503E+01  1.123220337E+03
2.642160416E+01  1.123299927E+03
2.643178329E+01  1.121961182E+03
2.644196242E+01  1.121613525E+03
2.645214155E+01  1.120985718E+03
2.646232068E+01  1.120095947E+03
2.647249981E+01  1.119892822E+03
2.648267894E+01  1.120329834E+03
2.649285807E+01  1.120920898E+03
2.650303720E+01  1.121368896E+03
2.651321633E+01  1.120811401E+03
2.652339546E+01  1.120073242E+03
2.653357459E+01  1.118847168E+03
2.654375372E+01  1.117237915E+03
2.655393285E+01  1.116483032E+03
2.656411198E+01  1.117129883E+03
2.657429112E+01  1.116892090E+03
2.658447025E+01  1.115658081E+03
2.659464938E+01  1.114958374E+03
2.660482851E+01  1.115239990E+03
2.661500764E+01  1.116002075E+03
2.662518677E+01  1.115377197E+03
2.663536590E+01  1.114620850E+03
2.664554503E+01  1.114548706E+03
2.665572416E+01  1.114576904E+03
2.666590329E+01  1.114947998E+03
2.667608242E+01  1.115049927E+03
2.668626155E+01  1.114393188E+03
2.669644068E+01  1.113388306E+03
2.670661981E+01  1.112079102E+03
2.671679894E+01  1.111497314E+03
2.672697807E+01  1.110813110E+03
2.673715721E+01  1.110733887E+03
2.674733634E+01  1.111308472E+03
2.675751547E+01  1.111804810E+03
2.676769460E+01  1.111073120E+03
2.677787373E+01  1.109270752E+03
2.678805286E+01  1.107921631E+03
2.679823199E+01  1.107956055E+03
2.680841112E+01  1.108432983E+03
2.681859025E+01  1.108525146E+03
2.682876938E+01  1.108106934E+03
2.683894851E+01  1.107464355E+03
2.684912764E+01  1.106892700E+03
2.685930677E+01  1.107506226E+03
2.686948590E+01  1.108529541E+03
2.687966503E+01  1.109441528E+03
2.688984416E+01  1.109016235E+03
2.690002330E+01  1.108274292E+03
2.691020243E+01  1.108195435E+03
2.692038156E+01  1.107057495E+03
2.693056069E+01  1.106307617E+03
2.694073982E+01  1.105375366E+03
2.695091895E+01  1.104858765E+03
2.696109808E+01  1.105338745E+03
2.697127721E+01  1.104680054E+03
2.698145634E+01  1.103986694E+03
2.699163547E+01  1.104076538E+03
2.700181460E+01  1.103246826E+03
2.701199373E+01  1.101731323E+03
2.702217286E+01  1.101604980E+03
2.703235199E+01  1.102494995E+03
2.704253112E+01  1.103414062E+03
2.705271025E+01  1.102757935E+03
2.706288939E+01  1.101000122E+03
2.707306852E+01  1.101028442E+03
2.708324765E+01  1.101408081E+03
2.709342678E+01  1.099623901E+03
2.710360591E+01  1.100017700E+03
2.711378504E+01  1.101967163E+03
2.712396417E+01  1.101242188E+03
2.713414330E+01  1.099876831E+03
2.714432243E+01  1.099121338E+03
2.715450156E+01  1.098373901E+03
2.716468069E+01  1.098135864E+03
2.717485982E+01  1.098848633E+03
2.718503895E+01  1.100433594E+03
2.719521808E+01  1.100446777E+03
2.720539721E+01  1.100176025E+03
2.721557634E+01  1.099794678E+03
2.722575547E+01  1.098406006E+03
2.723593461E+01  1.097967041E+03
2.724611374E+01  1.097789307E+03
2.725629287E+01  1.098216187E+03
2.726647200E+01  1.098783447E+03
2.727665113E+01  1.099336182E+03
2.728683026E+01  1.099927856E+03
2.729700939E+01  1.100232056E+03
2.730718852E+01  1.100486206E+03
2.731736765E+01  1.100015625E+03
2.732754678E+01  1.099928101E+03
2.733772591E+01  1.100514526E+03
2.734790504E+01  1.101039062E+03
2.735808417E+01  1.102345825E+03
2.736826330E+01  1.103887939E+03
2.737844243E+01  1.103318848E+03
2.738862156E+01  1.102700562E+03
2.739880070E+01  1.103288208E+03
2.740897983E+01  1.103716919E+03
2.741915896E+01  1.104220947E+03
2.742933809E+01  1.104690552E+03
2.743951722E+01  1.105226562E+03
2.744969635E+01  1.107325684E+03
2.745987548E+01  1.108916016E+03
2.747005461E+01  1.109089600E+03
2.748023374E+01  1.109543091E+03
2.749041287E+01  1.109495728E+03
2.750059200E+01  1.109662109E+03
2.751077113E+01  1.110376465E+03
2.752095026E+01  1.110237061E+03
2.753112939E+01  1.110922363E+03
2.754130852E+01  1.111811646E+03
2.755148765E+01  1.112708618E+03
2.756166679E+01  1.113442627E+03
2.757184592E+01  1.114142822E+03
2.758202505E+01  1.114492554E+03
2.759220418E+01  1.114150513E+03
2.760238331E+01  1.114437988E+03
2.761256244E+01  1.114749390E+03
2.762274157E+01  1.114217651E+03
2.763292070E+01  1.113536499E+03
2.764309983E+01  1.112082153E+03
2.765327896E+01  1.110627075E+03
2.766345809E+01  1.109949097E+03
2.767363722E+01  1.108429443E+03
2.768381635E+01  1.105168457E+03
2.769399548E+01  1.102292358E+03
2.770417461E+01  1.101453613E+03
2.771435374E+01  1.102462036E+03
2.772453288E+01  1.103755493E+03
2.773471201E+01  1.104046631E+03
2.774489114E+01  1.102664062E+03
2.775507027E+01  1.100053589E+03
2.776524940E+01  1.097611816E+03
2.777542853E+01  1.096509644E+03
2.778560766E+01  1.097020996E+03
2.779578679E+01  1.096813599E+03
2.780596592E+01  1.094663208E+03
2.781614505E+01  1.092062378E+03
2.782632418E+01  1.090599121E+03
2.783650331E+01  1.089245239E+03
2.784668244E+01  1.087057251E+03
2.785686157E+01  1.085257935E+03
2.786704070E+01  1.084673828E+03
2.787721983E+01  1.083936523E+03
2.788739897E+01  1.082027832E+03
2.789757810E+01  1.081461548E+03
2.790775723E+01  1.081884644E+03
2.791793636E+01  1.081247803E+03
2.792811549E+01  1.079892456E+03
2.793829462E+01  1.079035400E+03
2.794847375E+01  1.078212402E+03
2.795865288E+01  1.077177368E+03
2.796883201E+01  1.076146973E+03
2.797901114E+01  1.075225098E+03
2.798919027E+01  1.074295776E+03
2.799936940E+01  1.073224976E+03
2.800954853E+01  1.071503418E+03
2.801972766E+01  1.068609253E+03
2.802990679E+01  1.066686523E+03
2.804008592E+01  1.067504150E+03
2.805026506E+01  1.067454346E+03
2.806044419E+01  1.066732544E+03
2.807062332E+01  1.066639038E+03
2.808080245E+01  1.065270996E+03
2.809098158E+01  1.064010132E+03
2.810116071E+01  1.064056641E+03
2.811133984E+01  1.063503662E+03
2.812151897E+01  1.062546875E+03
2.813169810E+01  1.061293945E+03
2.814187723E+01  1.059368286E+03
2.815205636E+01  1.058565918E+03
2.816223549E+01  1.058515869E+03
2.817241462E+01  1.057663574E+03
2.818259375E+01  1.057439453E+03
2.819277288E+01  1.058137451E+03
2.820295201E+01  1.057859497E+03
2.821313114E+01  1.056897461E+03
2.822331028E+01  1.056149902E+03
2.823348941E+01  1.056363281E+03
2.824366854E+01  1.056288940E+03
2.825384767E+01  1.054563721E+03
2.826402680E+01  1.053408447E+03
2.827420593E+01  1.053676758E+03
2.828438506E+01  1.052363281E+03
2.829456419E+01  1.050964233E+03
2.830474332E+01  1.051062622E+03
2.831492245E+01  1.051485474E+03
2.832510158E+01  1.050693359E+03
2.833528071E+01  1.049562134E+03
2.834545984E+01  1.050622070E+03
2.835563897E+01  1.051763916E+03
2.836581810E+01  1.051401855E+03
2.837599723E+01  1.049836426E+03
2.838617637E+01  1.048497681E+03
2.839635550E+01  1.047522583E+03
2.840653463E+01  1.047593872E+03
2.841671376E+01  1.047515381E+03
2.842689289E+01  1.046705688E+03
2.843707202E+01  1.047031372E+03
2.844725115E+01  1.047945190E+03
2.845743028E+01  1.046759277E+03
2.846760941E+01  1.045021729E+03
2.847778854E+01  1.043453369E+03
2.848796767E+01  1.042781738E+03
2.849814680E+01  1.043444824E+03
2.850832593E+01  1.043904175E+03
2.851850506E+01  1.044279419E+03
2.852868419E+01  1.043722046E+03
2.853886332E+01  1.041899414E+03
2.854904246E+01  1.040512573E+03
2.855922159E+01  1.039646484E+03
2.856940072E+01  1.038878662E+03
2.857957985E+01  1.038133789E+03
2.858975898E+01  1.037407593E+03
2.859993811E+01  1.037564941E+03
2.861011724E+01  1.037286743E+03
2.862029637E+01  1.036110474E+03
2.863047550E+01  1.035584473E+03
2.864065463E+01  1.036254150E+03
2.865083376E+01  1.035847656E+03
2.866101289E+01  1.034240601E+03
2.867119202E+01  1.033903076E+03
2.868137115E+01  1.032982910E+03
2.869155028E+01  1.031472290E+03
2.870172941E+01  1.031969360E+03
2.871190855E+01  1.032943726E+03
2.872208768E+01  1.032843994E+03
2.873226681E+01  1.032964355E+03
2.874244594E+01  1.032848999E+03
2.875262507E+01  1.032363403E+03
2.876280420E+01  1.031893311E+03
2.877298333E+01  1.031017944E+03
2.878316246E+01  1.030244751E+03
2.879334159E+01  1.030529175E+03
2.880352072E+01  1.030195801E+03
2.881369985E+01  1.028406250E+03
2.882387898E+01  1.026799683E+03
2.883405811E+01  1.025387939E+03
2.884423724E+01  1.024548828E+03
2.885441637E+01  1.024405518E+03
2.886459550E+01  1.023670105E+03
2.887477464E+01  1.022373535E+03
2.888495377E+01  1.021455933E+03
2.889513290E+01  1.019601196E+03
2.890531203E+01  1.017142517E+03
2.891549116E+01  1.015096008E+03
2.892567029E+01  1.013554688E+03
2.893584942E+01  1.013563232E+03
2.894602855E+01  1.012934204E+03
2.895620768E+01  1.011200867E+03
2.896638681E+01  1.009628479E+03
2.897656594E+01  1.007768250E+03
2.898674507E+01  1.006229370E+03
2.899692420E+01  1.004415649E+03
2.900710333E+01  1.001279785E+03
2.901728246E+01  9.977808838E+02
2.902746159E+01  9.948247681E+02
2.903764073E+01  9.924387207E+02
2.904781986E+01  9.899501953E+02
2.905799899E+01  9.869058228E+02
2.906817812E+01  9.834398804E+02
2.907835725E+01  9.807355957E+02
2.908853638E+01  9.769755859E+02
2.909871551E+01  9.735048218E+02
2.910889464E+01  9.721995850E+02
2.911907377E+01  9.709982910E+02
2.912925290E+01  9.688603516E+02
2.913943203E+01  9.669289551E+02
2.914961116E+01  9.650855713E+02
2.915979029E+01  9.618889160E+02
2.916996942E+01  9.573855591E+02
2.918014855E+01  9.537559814E+02
2.919032768E+01  9.514348755E+02
2.920050681E+01  9.489296875E+02
2.921068595E+01  9.456012573E+02
2.922086508E+01  9.420697632E+02
2.923104421E+01  9.389868774E+02
2.924122334E+01  9.361671143E+02
2.925140247E+01  9.327604980E+02
2.926158160E+01  9.288333130E+02
2.927176073E+01  9.249155884E+02
2.928193986E+01  9.206891479E+02
2.929211899E+01  9.164744873E+02
2.930229812E+01  9.126690674E+02
2.931247725E+01  9.098065796E+02
2.932265638E+01  9.073049316E+02
2.933283551E+01  9.035068970E+02
2.934301464E+01  9.000627441E+02
2.935319377E+01  8.965199585E+02
2.936337290E+01  8.922908936E+02
2.937355204E+01  8.891478882E+02
2.938373117E+01  8.869556274E+02
2.939391030E+01  8.844227295E+02
2.940408943E+01  8.815092773E+02
2.941426856E+01  8.774199219E+02
2.942444769E+01  8.731689453E+02
2.943462682E+01  8.691074829E+02
2.944480595E+01  8.649378052E+02
2.945498508E+01  8.624722290E+02
2.946516421E+01  8.601964722E+02
2.947534334E+01  8.564937744E+02
2.948552247E+01  8.518880005E+02
2.949570160E+01  8.482263794E+02
2.950588073E+01  8.450103760E+02
2.951605986E+01  8.411992798E+02
2.952623899E+01  8.376099243E+02
2.953641813E+01  8.341962280E+02
2.954659726E+01  8.307211304E+02
2.955677639E+01  8.276437378E+02
2.956695552E+01  8.248779297E+02
2.957713465E+01  8.228844604E+02
2.958731378E+01  8.203363037E+02
2.959749291E+01  8.167025146E+02
2.960767204E+01  8.136835938E+02
2.961785117E+01  8.113497925E+02
2.962803030E+01  8.082350464E+02
2.963820943E+01  8.051580200E+02
2.964838856E+01  8.022278442E+02
2.965856769E+01  7.993287354E+02
2.966874682E+01  7.957770996E+02
2.967892595E+01  7.920097656E+02
2.968910508E+01  7.888512573E+02
2.969928422E+01  7.867792969E+02
2.970946335E+01  7.846660767E+02
2.971964248E+01  7.821713867E+02
2.972982161E+01  7.796793213E+02
2.974000074E+01  7.768791504E+02
2.975017987E+01  7.737860718E+02
2.976035900E+01  7.705076294E+02
2.977053813E+01  7.675804443E+02
2.978071726E+01  7.651787109E+02
2.979089639E+01  7.634661255E+02
2.980107552E+01  7.622456665E+02
2.981125465E+01  7.597515869E+02
2.982143378E+01  7.564821167E+02
2.983161291E+01  7.541514282E+02
2.984179204E+01  7.522321167E+02
2.985197117E+01  7.505122070E+02
2.986215031E+01  7.491921387E+02
2.987232944E+01  7.465559692E+02
2.988250857E+01  7.430256348E+02
2.989268770E+01  7.399763184E+02
2.990286683E+01  7.384739990E+02
2.991304596E+01  7.374616699E+02
2.992322509E+01  7.366327515E+02
2.993340422E+01  7.348339844E+02
2.994358335E+01  7.323569946E+02
2.995376248E+01  7.302998657E+02
2.996394161E+01  7.282438965E+02
2.997412074E+01  7.260054932E+02
2.998429987E+01  7.241024780E+02
2.999447900E+01  7.223510132E+02
3.000465813E+01  7.204548950E+02
3.001483726E+01  7.186831665E+02
3.002501640E+01  7.177603760E+02
3.003519553E+01  7.173015137E+02
3.004537466E+01  7.160704956E+02
3.005555379E+01  7.136392212E+02
3.006573292E+01  7.121252441E+02
3.007591205E+01  7.115048828E+02
3.008609118E+01  7.105237427E+02
3.009627031E+01  7.096081543E+02
3.010644944E+01  7.086940918E+02
3.011662857E+01  7.093753662E+02
3.012680770E+01  7.090082397E+02
3.013698683E+01  7.076912231E+02
3.014716596E+01  7.071594849E+02
3.015734509E+01  7.071246338E+02
3.016752422E+01  7.081064453E+02
3.017770335E+01  7.092487183E+02
3.018788249E+01  7.087808838E+02
3.019806162E+01  7.082424927E+02
3.020824075E+01  7.073818970E+02
3.021841988E+01  7.066776733E+02
3.022859901E+01  7.061676025E+02
3.023877814E+01  7.059491577E+02
3.024895727E+01  7.055202026E+02
3.025913640E+01  7.057550049E+02
3.026931553E+01  7.058759155E+02
3.027949466E+01  7.048377075E+02
3.028967379E+01  7.034425049E+02
3.029985292E+01  7.028028564E+02
3.031003205E+01  7.035263672E+02
3.032021118E+01  7.045234985E+02
3.033039031E+01  7.045163574E+02
3.034056944E+01  7.040193481E+02
3.035074857E+01  7.040645142E+02
3.036092771E+01  7.034754028E+02
3.037110684E+01  7.033111572E+02
3.038128597E+01  7.035985107E+02
3.039146510E+01  7.036688843E+02
3.040164423E+01  7.026758423E+02
3.041182336E+01  7.011363525E+02
3.042200249E+01  7.006234131E+02
3.043218162E+01  6.999946899E+02
3.044236075E+01  6.995720825E+02
3.045253988E+01  7.006107788E+02
3.046271901E+01  7.014057007E+02
3.047289814E+01  7.014646606E+02
3.048307727E+01  7.003495483E+02
3.049325640E+01  6.990641479E+02
3.050343553E+01  6.983979492E+02
3.051361466E+01  6.988092651E+02
3.052379380E+01  6.996311035E+02
3.053397293E+01  6.986838989E+02
3.054415206E+01  6.983896484E+02
3.055433119E+01  6.986735840E+02
3.056451032E+01  6.987227783E+02
3.057468945E+01  6.978364258E+02
3.058486858E+01  6.965734863E+02
3.059504771E+01  6.956567993E+02
3.060522684E+01  6.947087402E+02
3.061540597E+01  6.938560181E+02
3.062558510E+01  6.931700439E+02
3.063576423E+01  6.929941406E+02
3.064594336E+01  6.930383911E+02
3.065612249E+01  6.923359375E+02
3.066630162E+01  6.916150513E+02
3.067648075E+01  6.912926025E+02
3.068665989E+01  6.913671265E+02
3.069683902E+01  6.925683594E+02
3.070701815E+01  6.933521118E+02
3.071719728E+01  6.924821167E+02
3.072737641E+01  6.918125000E+02
3.073755554E+01  6.926136475E+02
3.074773467E+01  6.925155029E+02
3.075791380E+01  6.894626465E+02
3.076809293E+01  6.884978638E+02
3.077827206E+01  6.895786743E+02
3.078845119E+01  6.888656006E+02
3.079863032E+01  6.871779785E+02
3.080880945E+01  6.861446533E+02
3.081898858E+01  6.862394409E+02
3.082916771E+01  6.863097534E+02
3.083934684E+01  6.865232544E+02
3.084952598E+01  6.895717163E+02
3.085970511E+01  6.979873657E+02
3.086988424E+01  7.031375122E+02
3.088006337E+01  7.057855225E+02
3.089024250E+01  7.086496582E+02
3.090042163E+01  7.101956177E+02
3.091060076E+01  7.110441284E+02
3.092077989E+01  7.122410889E+02
3.093095902E+01  7.132567749E+02
3.094113815E+01  7.149985962E+02
3.095131728E+01  7.162915649E+02
3.096149641E+01  7.164846802E+02
3.097167554E+01  7.165547485E+02
3.098185467E+01  7.169249268E+02
3.099203380E+01  7.186023560E+02
3.100221293E+01  7.196578369E+02
3.101239207E+01  7.197698975E+02
3.102257120E+01  7.205993042E+02
3.103275033E+01  7.227606201E+02
3.104292946E+01  7.236999512E+02
3.105310859E+01  7.234461670E+02
3.106328772E+01  7.237880249E+02
3.107346685E+01  7.245282593E+02
3.108364598E+01  7.242701416E+02
3.109382511E+01  7.249174194E+02
3.110400424E+01  7.271457520E+02
3.111418337E+01  7.265473022E+02
3.112436250E+01  7.244722900E+02
3.113454163E+01  7.244486694E+02
3.114472076E+01  7.247961426E+02
3.115489989E+01  7.249122925E+02
3.116507902E+01  7.251246948E+02
3.117525816E+01  7.250632935E+02
3.118543729E+01  7.238983154E+02
3.119561642E+01  7.231068726E+02
3.120579555E+01  7.226010742E+02
3.121597468E+01  7.238886108E+02
3.122615381E+01  7.256389160E+02
3.123633294E+01  7.257151489E+02
3.124651207E+01  7.257677002E+02
3.125669120E+01  7.263367310E+02
3.126687033E+01  7.256151733E+02
3.127704946E+01  7.240438843E+02
3.128722859E+01  7.229268799E+02
3.129740772E+01  7.235408325E+02
3.130758685E+01  7.241789551E+02
3.131776598E+01  7.243500977E+02
3.132794511E+01  7.254228516E+02
3.133812424E+01  7.257510986E+02
3.134830338E+01  7.254987183E+02
3.135848251E+01  7.263522339E+02
3.136866164E+01  7.281072388E+02
3.137884077E+01  7.296625366E+02
3.138901990E+01  7.292354736E+02
3.139919903E+01  7.286524048E+02
3.140937816E+01  7.275137329E+02
3.141955729E+01  7.260421753E+02
3.142973642E+01  7.260310059E+02
3.143991555E+01  7.262487183E+02
3.145009468E+01  7.259606323E+02
3.146027381E+01  7.258248291E+02
3.147045294E+01  7.254515381E+02
3.148063207E+01  7.255383911E+02
3.149081120E+01  7.260577393E+02
3.150099033E+01  7.262826538E+02
3.151116947E+01  7.253941040E+02
3.152134860E+01  7.241374512E+02
3.153152773E+01  7.236219482E+02
3.154170686E+01  7.237741089E+02
3.155188599E+01  7.235818481E+02
3.156206512E+01  7.238007812E+02
3.157224425E+01  7.238919678E+02
3.158242338E+01  7.240980835E+02
3.159260251E+01  7.252123413E+02
3.160278164E+01  7.261226807E+02
3.161296077E+01  7.263262329E+02
3.162313990E+01  7.262568359E+02
3.163331903E+01  7.257121582E+02
3.164349816E+01  7.253076782E+02
3.165367729E+01  7.255512695E+02
3.166385642E+01  7.254971924E+02
3.167403556E+01  7.240810547E+02
3.168421469E+01  7.235184326E+02
3.169439382E+01  7.251389771E+02
3.170457295E+01  7.266062622E+02
3.171475208E+01  7.263388672E+02
3.172493121E+01  7.249060669E+02
3.173511034E+01  7.243544312E+02
3.174528947E+01  7.233011475E+02
3.175546860E+01  7.216111450E+02
3.176564773E+01  7.214907837E+02
3.177582686E+01  7.212359009E+02
3.178600599E+01  7.237304688E+02
3.179618512E+01  7.253802490E+02
3.180636425E+01  7.245576782E+02
3.181654338E+01  7.231653442E+02
3.182672251E+01  7.229556274E+02
3.183690165E+01  7.239859009E+02
3.184708078E+01  7.229511719E+02
3.185725991E+01  7.208564453E+02
3.186743904E+01  7.198101807E+02
3.187761817E+01  7.192661743E+02
3.188779730E+01  7.185737305E+02
3.189797643E+01  7.188124390E+02
3.190815556E+01  7.193152466E+02
3.191833469E+01  7.191110229E+02
3.192851382E+01  7.183590088E+02
3.193869295E+01  7.177982788E+02
3.194887208E+01  7.164921875E+02
3.195905121E+01  7.153971558E+02
3.196923034E+01  7.146369019E+02
3.197940947E+01  7.146994629E+02
3.198958860E+01  7.145678711E+02
3.199976774E+01  7.125446167E+02
3.200994687E+01  7.111678467E+02
3.202012600E+01  7.110723877E+02
3.203030513E+01  7.111976318E+02
3.204048426E+01  7.115718994E+02
3.205066339E+01  7.116412964E+02
3.206084252E+01  7.104085083E+02
3.207102165E+01  7.104292603E+02
3.208120078E+01  7.111172485E+02
3.209137991E+01  7.107589722E+02
3.210155904E+01  7.099680176E+02
3.211173817E+01  7.086661377E+02
3.212191730E+01  7.071799316E+02
3.213209643E+01  7.068503418E+02
3.214227556E+01  7.076915894E+02
3.215245469E+01  7.072811890E+02
3.216263383E+01  7.047583008E+02
3.217281296E+01  7.034829102E+02
3.218299209E+01  7.028265991E+02
3.219317122E+01  7.013464966E+02
3.220335035E+01  7.008068848E+02
3.221352948E+01  7.001665649E+02
3.222370861E+01  7.005126343E+02
3.223388774E+01  7.085709839E+02
3.224406687E+01  7.308504028E+02
3.225424600E+01  7.549283447E+02
3.226442513E+01  7.655991821E+02
3.227460426E+01  7.678035278E+02
3.228478339E+01  7.684286499E+02
3.229496252E+01  7.720602417E+02
3.230514165E+01  7.753992920E+02
3.231532078E+01  7.777473755E+02
3.232549991E+01  7.805308228E+02
3.233567905E+01  7.837741699E+02
3.234585818E+01  7.861434326E+02
3.235603731E+01  7.863248901E+02
3.236621644E+01  7.864936523E+02
3.237639557E+01  7.867272339E+02
3.238657470E+01  7.892521973E+02
3.239675383E+01  7.942809448E+02
3.240693296E+01  7.937225342E+02
3.241711209E+01  7.923331909E+02
3.242729122E+01  7.925308228E+02
3.243747035E+01  7.950005493E+02
3.244764948E+01  7.981112671E+02
3.245782861E+01  7.984461060E+02
3.246800774E+01  7.993488159E+02
3.247818687E+01  8.006517944E+02
3.248836600E+01  8.002053223E+02
3.249854514E+01  7.994520874E+02
3.250872427E+01  7.981176147E+02
3.251890340E+01  7.955846558E+02
3.252908253E+01  7.963295288E+02
3.253926166E+01  7.978161011E+02
3.254944079E+01  7.994592285E+02
3.255961992E+01  7.996445312E+02
3.256979905E+01  7.985925293E+02
3.257997818E+01  7.998359985E+02
3.259015731E+01  8.012803345E+02
3.260033644E+01  7.989440918E+02
3.261051557E+01  7.960775757E+02
3.262069470E+01  7.952122803E+02
3.263087383E+01  7.934772949E+02
3.264105296E+01  7.920374146E+02
3.265123209E+01  7.904853516E+02
3.266141123E+01  7.901467896E+02
3.267159036E+01  7.908342285E+02
3.268176949E+01  7.886181641E+02
3.269194862E+01  7.846910400E+02
3.270212775E+01  7.839442749E+02
3.271230688E+01  7.844280396E+02
3.272248601E+01  7.803251953E+02
3.273266514E+01  7.770249023E+02
3.274284427E+01  7.777312012E+02
3.275302340E+01  7.774809570E+02
3.276320253E+01  7.768768311E+02
3.277338166E+01  7.748640137E+02
3.278356079E+01  7.734426270E+02
3.279373992E+01  7.714890747E+02
3.280391905E+01  7.693640747E+02
3.281409818E+01  7.676157837E+02
3.282427732E+01  7.664119263E+02
3.283445645E+01  7.624810791E+02
3.284463558E+01  7.601939087E+02
3.285481471E+01  7.599268799E+02
3.286499384E+01  7.554896851E+02
3.287517297E+01  7.550868530E+02
3.288535210E+01  7.558901367E+02
3.289553123E+01  7.518233032E+02
3.290571036E+01  7.515596924E+02
3.291588949E+01  7.522149658E+02
3.292606862E+01  7.515187378E+02
3.293624775E+01  7.486519775E+02
3.294642688E+01  7.440824585E+02
3.295660601E+01  7.382679443E+02
3.296678514E+01  7.349331055E+02
3.297696427E+01  7.347274780E+02
3.298714341E+01  7.276380005E+02
3.299732254E+01  7.218775024E+02
3.300750167E+01  7.199992065E+02
3.301768080E+01  7.183211060E+02
3.302785993E+01  7.166448364E+02
3.303803906E+01  7.077864380E+02
3.304821819E+01  7.023759766E+02
3.305839732E+01  6.995505371E+02
3.306857645E+01  6.971161499E+02
3.307875558E+01  6.922608032E+02
3.308893471E+01  6.862725830E+02
3.309911384E+01  6.800081787E+02
3.310929297E+01  6.778099976E+02
3.311947210E+01  6.728823242E+02
3.312965123E+01  6.691871948E+02
3.313983036E+01  6.647011719E+02
3.315000950E+01  6.590838013E+02
3.316018863E+01  6.533332520E+02
3.317036776E+01  6.457084351E+02
3.318054689E+01  6.410798340E+02
3.319072602E+01  6.336638794E+02
3.320090515E+01  6.240656738E+02
3.321108428E+01  6.224896851E+02
3.322126341E+01  6.237222900E+02
3.323144254E+01  6.229530640E+02
3.324162167E+01  6.193071289E+02
3.325180080E+01  6.165954590E+02
3.326197993E+01  6.139502563E+02
3.327215906E+01  6.092773438E+02
3.328233819E+01  6.053067627E+02
3.329251732E+01  6.045310669E+02
3.330269645E+01  6.061732788E+02
3.331287558E+01  6.049490967E+02
3.332305472E+01  6.064382935E+02
3.333323385E+01  6.129008179E+02
3.334341298E+01  6.123800659E+02
3.335359211E+01  6.103888550E+02
3.336377124E+01  6.141804810E+02
3.337395037E+01  6.175286255E+02
3.338412950E+01  6.141813965E+02
3.339430863E+01  6.072924805E+02
3.340448776E+01  5.989605713E+02
3.341466689E+01  5.941969604E+02
3.342484602E+01  5.940108643E+02
3.343502515E+01  5.913920898E+02
3.344520428E+01  5.832717285E+02
3.345538341E+01  5.832296753E+02
3.346556254E+01  5.958870239E+02
3.347574167E+01  6.042664185E+02
3.348592081E+01  6.028726807E+02
3.349609994E+01  5.992622681E+02
3.350627907E+01  5.905596313E+02
3.351645820E+01  5.806212769E+02
3.352663733E+01  5.750674438E+02
3.353681646E+01  5.763893433E+02
3.354699559E+01  5.789714966E+02
3.355717472E+01  5.858513794E+02
3.356735385E+01  5.932470703E+02
3.357753298E+01  5.795446777E+02
3.358771211E+01  5.816477661E+02
3.359789124E+01  5.791627808E+02
3.360807037E+01  5.642036743E+02
3.361824950E+01  5.663540649E+02
3.362842863E+01  5.559924927E+02
