E,DOS,dDOS,Velocity,dVelocity
0.24946999999999997,0.00243554,0.00520701,4844.2688178140415,3452.2358480362077
0.49893999999999994,0.0120504,0.015722200000000002,4512.800829932076,1962.626498960591
0.74841,0.027318799999999997,0.024009700000000002,4501.462336257958,1318.740818041115
0.9978799999999999,0.0380348,0.0290426,4883.59461016492,1243.0119803817897
1.24735,0.039506900000000005,0.0332133,5595.630246440869,1568.0827601991334
1.49682,0.0409718,0.038910400000000005,6242.604331975987,1976.181782019281
1.7462900000000001,0.0536821,0.046555400000000004,6322.403144567164,1827.6941294566748
1.9957599999999998,0.0801487,0.05182080000000001,6046.738040537225,1303.200285184104
2.24523,0.113758,0.054885699999999996,5820.062933455563,936.03096315654
2.4947,0.150312,0.0666257,5689.779541462279,840.6787168193238
2.74417,0.19500699999999999,0.0783971,5559.107174223636,744.977220810579
2.99364,0.243691,0.08820660000000001,5469.332475212244,659.912360913636
3.2431099999999997,0.272068,0.0895173,5561.130296853287,609.9375440870888
3.4925800000000002,0.30039499999999997,0.0970961,5653.027711469189,609.0928404059089
3.74205,0.39162399999999997,0.11593599999999998,5418.316837190802,534.6991563977328
3.9915199999999995,0.492306,0.11947200000000001,5241.170275824831,423.99801962515545
4.24099,0.5300090000000001,0.11496600000000001,5324.737343980236,385.03074988610416
4.49046,0.587152,0.129614,5345.949013460262,393.40159511862964
4.73993,0.751635,0.154952,5104.188752410227,350.777255227689
4.9894,0.9490569999999999,0.175228,4886.702370481517,300.7810183705276
5.2388699999999995,1.0575700000000001,0.17439000000000002,4869.3367786253875,267.6806062126295
5.48834,1.0718299999999998,0.179885,5000.343141415294,279.77026444368886
5.73781,1.07636,0.209405,5143.5073469327235,333.58595926231095
5.98728,1.13333,0.222786,5201.341354398484,340.8512922840216
6.23675,1.24022,0.23526100000000003,5186.651716310269,327.9889990338259
6.486219999999999,1.38905,0.247245,5126.680621342858,304.20939205716485
6.735689999999999,1.57425,0.273279,5042.4848177902995,291.81414359708253
6.9851600000000005,1.7859900000000002,0.30585100000000004,4953.425897972696,282.79200167010646
7.23463,1.99853,0.316742,4884.143684943476,258.06117221473374
7.4841,2.13463,0.340995,4887.273280959089,260.2737259338458
7.733569999999999,2.1516599999999997,0.355535,4982.070906905912,274.4435496120621
7.983039999999999,2.1750700000000003,0.359687,5070.322261492023,279.5254710250991
8.232510000000001,2.33435,0.413808,5054.916192320837,298.7266579729248
8.48198,2.49286,0.43597299999999994,5044.831194509739,294.12827760047173
8.73145,2.48258,0.41448,5150.360192108943,286.66270815305955
8.98092,2.4686,0.437608,5257.889032860722,310.722751816389
9.23039,2.74051,0.5080819999999999,5171.50969082904,319.62645952804326
9.47986,3.16635,0.531172,5016.830351947025,280.5681840107839
9.729330000000001,3.47571,0.538562,4948.290836036134,255.61682473940624
9.9788,3.73328,0.574537,4914.014837793467,252.11972042552122
10.2283,3.99747,0.568118,4883.018164147139,231.3639361735123
10.4777,4.2199599999999995,0.642437,4873.290499165364,247.33685359910334
10.7272,4.40804,0.705651,4878.917959657261,260.37902790079266
10.9767,4.60409,0.698562,4882.936023597619,246.99431072131796
11.2262,4.73117,0.711264,4911.868952705135,246.181285693052
11.4756,4.69776,0.746074,4996.13807057318,264.5236541833833
11.7251,4.64332,0.7236020000000001,5088.025405778171,264.3393035224897
11.9746,4.82329,0.8122510000000001,5094.958579745466,286.0354592112639
12.224,5.23501,0.780634,5026.328028070304,249.8779115286921
12.4735,5.81884,0.87444,4918.0679125819415,246.39628941652848
12.723,6.36523,0.9552950000000001,4836.55454842672,241.9946209997916
12.9724,6.44503,0.983323,4879.249344307463,248.18086898389026
13.2219,6.51123,0.964449,4924.808402313387,243.19440830802478
13.4714,7.09768,1.08724,4845.264112386059,247.4400391512828
13.7209,7.7801800000000005,1.13126,4757.070893249316,230.60198373880002
13.9703,8.27994,1.13174,4715.660498876121,214.89291466809726
14.2198,8.80667,1.22951,4674.546923082002,217.5788021474568
14.4693,9.145389999999999,1.29488,4669.9479829829725,220.44176993605166
14.7187,8.88808,1.27631,4768.605805311798,228.29273291302934
14.9682,8.46925,1.16214,4900.561455414898,224.19132004697414
15.2177,8.36703,1.21354,4974.96476523194,240.56019632163836
15.4671,8.46955,1.31712,5008.798830064675,259.68100630817133
15.7166,9.04193,1.40016,4953.358855516325,255.716318566796
15.9661,10.0056,1.48623,4839.486583810627,239.6568253208032
16.2156,10.7931,1.58176,4767.83320667821,232.9511974491425
16.465,11.3053,1.6693200000000001,4742.728151707189,233.47166872216675
16.7145,11.5323,1.5256399999999999,4758.879648441192,209.89709881104866
16.964,11.6737,1.55366,4786.63639812567,212.3940941361873
17.2134,11.8861,1.6041100000000001,4804.47295638015,216.17362482309917
17.4629,11.8149,1.63798,4860.511784831002,224.65617490526867
17.7124,11.91,1.65693,4893.603666434944,226.9752267296978
17.9618,12.9499,1.87947,4803.511909145753,232.42281150565182
18.2113,14.2592,2.02089,4694.723488324969,221.82574030127793
18.4608,14.7299,2.0140700000000002,4686.495285880766,213.64020108184872
18.7103,14.6049,2.0481,4742.078553947846,221.70594494330794
18.9597,14.7541,2.03487,4767.944290438912,219.23695374936588
19.2092,15.3007,2.19863,4751.712886597089,227.63728046041766
19.4587,15.5539,2.10447,4766.620246197715,215.01846167611455
19.7081,15.686,2.1199,4793.729680401167,215.9924926685825
19.9576,17.1701,2.27704,4690.606924208623,207.39201496080568
20.2071,18.8263,2.30735,4586.648312448323,187.4234199572737
20.4565,18.8801,2.3475099999999998,4619.914049633399,191.5199851668817
20.706,19.4376,2.64628,4612.443210208921,209.35576503403425
20.9555,21.2945,2.81088,4510.146425382527,198.4867241689114
21.205,21.4026,2.76916,4538.208504956375,195.7651971712046
21.4544,20.0944,2.5834200000000003,4670.897535889335,200.21241413086653
21.7039,21.5986,2.67041,4595.1295348130825,189.42105926206384
21.9534,24.2966,2.9279900000000003,4452.122767513956,178.88527843942043
22.2028,24.3527,2.82445,4482.33072551099,173.33345127983495
22.4523,24.6563,3.08422,4497.236170235562,187.55947359906216
22.7018,27.4226,3.35742,4372.720900902183,178.49618067847166
22.9513,29.08,3.2944699999999996,4319.377532111999,163.15840975271024
23.2007,28.7731,3.20992,4366.025618811538,162.40323542362532
23.4502,29.8774,3.6099900000000003,4342.413798589687,174.93521397248114
23.6997,32.1508,3.6190599999999997,4267.554508029643,160.17021160013414
23.9491,33.4386,3.59246,4241.549522591268,151.9423343820485
24.1986,34.6747,3.8337199999999996,4219.591047398684,155.55396879943652
24.4481,36.106,3.98887,4191.64719986882,154.40397464349897
24.6975,36.7869,3.9154199999999997,4193.906120109724,148.83900163645973
24.947,37.7064,4.041530000000001,4187.5014175489205,149.65689019227725
25.1965,39.1714,4.20105,4162.154716525212,148.8393732352389
25.446,40.2923,4.04772,4150.369549564257,139.02870603820537
25.6954,41.1348,4.19983,4148.727380714886,141.2413078967051
25.9449,42.9606,4.348990000000001,4115.528945086779,138.92191134727514
26.1944,46.2955,4.67858,4039.9297776256058,136.1371403522006
26.4438,49.1466,5.0673,3985.3443813137046,137.01580731254606
26.6933,50.5591,4.73956,3972.673187820698,124.18615373161163
26.9428,53.4138,5.25737,3924.868392519876,128.81776264984626
27.1922,58.5221,5.82711,3830.634382296551,127.18503731950725
27.4417,62.4173,5.66597,3772.1311837466255,114.18766964628838
27.6912,64.5572,5.57344,3752.5578385333038,108.04100689667204
27.9407,67.7354,5.87726,3715.073360665793,107.49967367496477
28.1901,72.0168,6.12085,3661.57198655619,103.78499267196578
28.4396,74.9979,6.407769999999999,3633.683197531031,103.53608582316468
28.6891,75.6274,6.30072,3644.7353473264006,101.26855996492446
28.9385,77.4879,6.602360000000001,3636.250713560913,103.32541176952691
29.188,83.3416,6.8202300000000005,3569.412330595993,97.41806646988128
29.4375,92.5857,7.448519999999999,3466.041438528117,92.99793287302263
29.6869,101.93799999999999,7.77787,3375.558477274437,85.90330849684632
29.9364,106.094,7.5453,3349.5300623694166,79.46001222535394
30.1859,107.303,7.819260000000001,3355.4175397614636,81.55773634637477
30.4354,108.596,7.91269,3360.4376262363417,81.67159206834138
30.6848,107.54899999999999,7.603039999999999,3389.699335548051,79.93275057773332
30.9343,105.79700000000001,8.01273,3426.758642965248,86.56338853194949
31.1838,107.679,8.0232,3424.970160998205,85.11885196234539
31.4332,113.053,8.299430000000001,3387.761326117501,82.95443045035022
31.6827,115.022,8.30824,3386.119319079821,81.5831106267545
31.9322,110.522,8.3804,3449.457150953352,87.23880817977904
32.1816,106.447,8.18914,3511.088034048314,90.09112434970343
32.4311,105.72399999999999,8.117939999999999,3537.2386633328256,90.5884895956737
32.6806,106.04,8.17734,3551.822169899071,91.35403744766485
32.9301,105.65,8.36112,3574.2640942117955,94.34152590784794
33.1795,104.648,8.42398,3603.7170651409824,96.74984335988849
33.429,104.84200000000001,8.38589,3619.5251358345104,96.55653266513872
33.6785,106.09100000000001,8.66306,3623.181456897523,98.67098226892789
33.9279,105.37799999999999,8.3056,3649.2401252674745,95.92830982661836
34.1774,103.052,8.20035,3694.494108816793,98.05045236832969
34.4269,99.3635,7.8998,3757.832552828249,99.64275493706081
34.6763,95.0218,8.031,3832.614948716567,108.02716896392718
34.9258,93.073,8.38373,3877.6693753372247,116.47972790319747
35.1753,93.1478,8.41625,3895.071598466697,117.3616821635793
35.4248,90.4505,7.82265,3951.9889339121346,113.98311339553779
35.6742,82.8862,7.55505,4087.8020568519455,124.25291653190857
35.9237,77.8295,8.00168,4193.9224883903,143.77382962627834
36.1732,79.7129,7.74127,4179.870779251241,135.3587438799225
36.4226,84.7676,8.51789,4113.8814547995435,137.84250059088495
36.6721,88.182,8.48172,4078.6049730459154,130.81532215133223
36.9216,86.0408,8.272260000000001,4130.7917519492285,132.432982733632
37.171,80.7603,7.7696,4237.90575696567,135.95492432088972
37.4205,78.1257,7.7854600000000005,4304.171055767024,143.02489311379782
37.67,78.1408,8.20175,4323.003311561324,151.2972086046718
37.9195,75.6748,7.93615,4388.7321892051905,153.46684830318443
38.1689,70.3055,7.60803,4517.426565339891,162.99809368591613
38.4184,67.794,7.47682,4592.4404702158745,168.87792273112794
38.6679,70.4962,8.10321,4552.601052665661,174.47963334597443
38.9173,74.0438,8.079139999999999,4497.93671721998,163.64251864494003
39.1668,75.1869,8.073030000000001,4494.131470514501,160.8980234836728
39.4163,75.6679,7.9593300000000005,4503.613530254417,157.9581451231772
39.6657,76.1549,7.99423,4512.9297205961175,157.96250003021458
39.9152,75.7565,8.11749,4539.764715107986,162.19829958483314
40.1647,74.1843,8.04005,4590.642324353339,165.89309722795588
40.4142,71.9922,8.007810000000001,4655.953292751902,172.67859037079924
40.6636,70.8085,8.04849,4700.995737778523,178.16206365274957
40.9131,72.231,8.50873,4689.013555500409,184.16659527763454
41.1626,76.3454,8.564789999999999,4621.915629232477,172.88421603814348
41.412,77.6077,8.904119999999999,4615.2684996320195,176.55391384493916
41.6615,74.6159,8.06683,4694.909734857004,169.2417566341321
41.911,75.5283,8.99117,4694.5779158258,186.33267933219543
42.1604,79.5825,9.25034,4631.749481686475,179.5049376683089
42.4099,78.3733,8.45765,4673.797517321852,168.17471371059025
42.6594,75.0819,8.68602,4759.69564482909,183.5933906790614
42.9089,74.6999,8.98381,4786.367267317759,191.92447832378252
43.1583,74.1194,8.86536,4817.407234497942,192.11567811772832
43.4078,74.1434,9.12475,4835.433966694578,198.4097516316213
43.6573,76.8172,9.086319999999999,4796.961102561011,189.18343611395014
43.9067,76.8003,8.36382,4815.565913338458,174.86221029555907
44.1562,73.8874,8.82315,4896.496391545929,194.95035569535148
44.4057,72.4927,8.947980000000001,4946.2435207812705,203.55637715881912
44.6552,74.5688,8.54055,4918.24410709496,187.81633215878742
44.9046,78.128,9.323039999999999,4860.408349620535,193.37888973533953
45.1541,76.1167,8.70767,4920.991130939745,187.70223887147557
45.4036,71.2148,8.96632,5049.920550025826,211.98402400452696
45.653,69.4768,8.89382,5110.3116299228595,218.10589105937498
45.9025,67.2312,8.34809,5185.39340509748,214.67193915167164
46.152,63.856,8.08892,5294.287884154588,223.5989879298496
46.4014,64.6322,8.81756,5291.987977232634,240.7014633781547
46.6509,67.5709,8.80177,5232.805056263494,227.25485917307066
46.9004,66.3143,8.46667,5284.408799381351,224.94369404101587
47.1499,60.0072,7.6456,5482.775990105465,232.9062115392053
47.3993,54.2451,7.944660000000001,5690.3924537813255,277.84757959798264
47.6488,54.8809,8.53658,5688.206348187218,294.9711845106398
47.8983,60.7648,9.1768,5517.518712309335,277.7975357409969
48.1477,66.6234,9.25511,5369.3601955018285,248.6765469607315
48.3972,68.1368,9.20964,5347.703897036164,240.98510651094787
48.6467,65.1637,8.26937,5446.465836164272,230.4382585379356
48.8961,61.3197,8.66033,5576.956356256844,262.59509003365264
49.1456,58.6532,9.00179,5679.458926288725,290.5945040545823
49.3951,54.4647,8.3603,5841.153867144467,298.91564022821615
49.6446,49.9358,7.36033,6032.885911176915,296.45520862846155
49.894,49.4529,8.19455,6072.712667374541,335.46728518213007
50.1435,51.4716,8.71782,6012.221594610448,339.4743253180998
50.393,53.5733,8.75897,5952.212788220788,324.42826990488567
50.6424,55.6788,9.1556,5895.590852984555,323.19098137353177
50.8919,57.0526,8.53609,5867.07629274171,292.65228302672443
51.1414,58.2185,8.68644,5846.678012180218,290.82852650004656
51.3908,59.5126,8.746080000000001,5822.842591259833,285.29140206479013
51.6403,57.5499,8.74734,5907.341607073925,299.3422708187205
51.8898,54.7776,8.51326,6024.6909015113915,312.15430859240064
52.1393,56.751,9.70379,5973.103825177095,340.4855321335958
52.3887,60.2579,9.11235,5873.561532745706,296.1168537310372
52.6382,62.8743,9.32473,5809.3035687958145,287.2334503407477
52.8877,66.5521,10.1236,5718.256578882768,289.98883496372355
53.1371,68.9626,10.0051,5668.59108464715,274.17880888840233
53.3866,72.6981,10.011,5587.20913430256,256.5123122528087
53.6361,83.0163,11.5092,5362.057201276022,247.83978320027188
53.8855,90.5591,11.7087,5224.984637847117,225.23260111856757
54.135,87.8638,10.9042,5294.153622159655,219.05732502042483
54.3845,84.5537,10.9281,5378.819784270649,231.77615810905965
54.634,88.7843,11.7009,5308.164579781836,233.23499584241827
54.8834,97.751,12.6253,5156.258811633122,222.0368463334364
55.1329,106.15899999999999,12.3211,5031.560791385726,194.7094111642776
55.3824,111.76700000000001,12.3196,4960.868964676024,182.32431273029707
55.6318,109.399,12.8385,5011.396089530852,196.0869759186975
55.8813,97.2342,11.0405,5227.8015264913165,197.91804828646576
56.1308,87.826,11.3978,5424.26492554248,234.69714072007793
56.3802,89.9909,11.5884,5396.340131906202,231.68322367448596
56.6297,99.4369,13.2334,5235.137436925686,232.28250533201484
56.8792,107.461,13.037,5116.423278782762,206.95467887504472
57.1287,108.288,13.3952,5118.278215754407,211.09153507588925
57.3781,100.193,11.8309,5267.842167160224,207.39624561258037
57.6276,90.8577,11.9214,5458.17616045813,238.77018061636508
57.8771,90.2539,11.9792,5486.0987597231015,242.76745782622723
58.1265,91.4615,11.8796,5477.52600584067,237.2011399391033
58.376,85.7675,11.0537,5612.1561255893275,241.14868858058134
58.6255,77.738,11.1071,5815.5977238685555,277.0223872117084
58.8749,73.5275,11.216,5941.343029332342,302.1460266733926
59.1244,69.2314,10.7262,6078.89392979577,313.9853615236498
59.3739,58.87,9.40898,6434.480340907796,342.8469020842014
59.6234,45.2341,8.817219999999999,7044.826143418987,457.77782333708643
59.8728,37.5923,8.04838,7513.9422410873485,536.2771978940448
60.1223,37.2333,8.03112,7558.941544513062,543.5218226165026
60.3718,36.8351,8.45995,7607.055260911118,582.4116769757535
60.6212,30.4803,6.97633,8125.018891135644,619.9260937406775
60.8707,23.6125,6.63329,8871.001367991505,830.7257357549935
61.1202,20.8805,6.665710000000001,9267.387420169722,986.1807033022417
61.3696,17.363,5.94465,9881.92861861125,1127.807424405309
61.6191,12.8281,5.93307,10960.673156022454,1689.8190972011214
61.8686,9.52045,5.33828,12138.792082588026,2268.835063981956
62.1181,6.5986199999999995,4.34216,13753.360976966971,3016.78111444497
62.3675,3.5866599999999997,3.88786,16897.53130982148,6105.5347465559935
62.617,1.71933,5.06721,21648.253416474734,21267.255344781017
62.8665,1.89967,5.25206,20995.90372052455,19349.28989185818
63.1159,3.10655,4.701890000000001,17868.201556857715,9014.764135734022
63.3654,5.41056,4.62549,14890.244208160384,4243.245647563591
63.6149,9.05232,6.0235,12575.744513272797,2789.362132350285
63.8643,10.3093,5.8706,12073.786281570847,2291.81854498067
64.1138,7.64325,4.84932,13374.865690479408,2828.6207926809766
64.3633,3.38444,5.48854,17593.18088769281,9510.288805580833
64.6128,-1.64248,4.16753,-22445.370757529072,18983.855073929917
64.8622,-5.767519999999999,2.5240299999999998,-14805.140031078228,2159.7555789275953
65.1117,-4.09966,3.67034,-16631.746183110627,4963.373372606899
65.3612,1.88753,5.236190000000001,21593.837533108694,19967.804057223748
65.6106,2.7254,3.54296,19153.74471877826,8299.832676825139
65.8601,-0.971397,2.77421,-27083.021242785446,25782.11949847177
66.1096,-2.27774,3.587,-20437.263414753827,10728.260955495733
66.3591,-0.988009,4.00885,-27066.231812654445,36607.11810966854
66.6085,0.342785,4.24713,38615.3763418423,159482.40351032992
66.858,1.0441200000000002,4.83914,26705.449245818694,41256.88896562421
67.1075,2.95102,4.91443,18935.252243657866,10511.17795663952
67.3569,4.87139,6.169969999999999,16061.454306769518,6781.015099477736
67.6064,2.9496700000000002,5.54371,19031.886359721102,11923.069730206245
67.8559,-0.673837,4.15487,-31209.57810224887,64145.95404472665
68.1053,-2.25146,3.9503199999999996,-20927.320915338,12239.422174398844
68.3548,-2.08948,4.19053,-21507.059879181284,14377.749178412845
68.6043,-0.0662043,5.26775,-68132.33368394397,1807053.3231326153
68.8538,3.5245,5.753369999999999,18155.179340352475,9878.810361344678
69.1032,5.633030000000001,5.71945,15565.599683335968,5268.151797112243
69.3527,4.6245400000000005,6.50012,16663.536407442094,7807.275834260905
69.6022,3.1815900000000004,5.17626,18921.18561936286,10261.232672777833
69.8516,2.7629200000000003,5.5972599999999995,19879.673225322036,13424.419895129342
70.1011,0.826685,5.1018,29793.23360264622,61288.613825935194
70.3506,-2.2463900000000003,4.23859,-21400.86154294623,13460.050258753288
70.6,-2.63373,5.1388,-20343.569468706075,13231.12479212203
70.8495,0.5245479999999999,5.07886,34917.559921553846,112694.74226953034
71.099,4.02958,5.04887,17737.953280258796,7408.284059236471
71.3485,0.559267,3.9201,34339.81405307166,80233.30219679404
71.5979,-0.3987,4.374680000000001,-38530.01844163999,140921.75067002137
71.8474,0.9064120000000001,5.347090000000001,29370.629940718896,57754.243266994796
72.0969,0.386561,5.02762,39109.850402804266,169554.49907478047
72.3463,-1.35225,3.08187,-25822.978029250746,19617.45607301348
72.5958,-1.64114,4.43573,-24264.62362298572,21861.09868934363
72.8453,-0.162424,4.87622,-52577.354402815385,526151.2011395742
73.0947,2.08256,5.25901,22515.029669847267,18952.128017282983
73.3442,2.43546,5.42389,21418.939100449516,15900.357164327088
73.5937,-0.8364440000000001,3.17735,-30654.61794507973,38815.29982982184
73.8432,-3.8239199999999998,2.82555,-18511.93623203594,4559.608701383625
74.0926,-3.59576,5.136830000000001,-18937.999328641654,9018.163051734868
74.3421,-2.04251,3.55553,-22918.32771261355,13298.489905293613
74.5916,-0.882639,4.88216,-30381.7894753672,56017.153964061
74.841,-1.15295,4.11273,-27855.05385338507,33120.93532391012
75.0905,-2.4119200000000003,3.24323,-21828.143673072773,9783.882748810907
75.34,-2.25362,4.974130000000001,-22377.142129684904,16463.42239725374
75.5894,-0.791371,4.677230000000001,-31787.887016917375,62625.18830782104
75.8389,0.366508,4.6311,41176.36165504823,173431.27811749605
76.0884,1.62818,6.08479,25103.017861018845,31271.44630373595
76.3379,1.41583,4.35836,26357.499571518743,27045.505524877528
