# == pyFAI calibration ==
# SplineFile: None
# PixelSize: 7.900e-05, 7.900e-05 m
# PONI: 1.411e-01, 1.028e-01 m
# Distance Sample to Detector: 0.252389920345 m
# Rotations: 0.001947 0.002954 0.000003 rad
# 
# == Fit2d calibration ==
# Distance Sample-beamCenter: 252.392 mm
# Center: x=1295.273, y=1795.185 pix
# Tilt: 0.203 deg  TiltPlanRot: 123.397 deg
# 
# Wavelength: 8.603e-11
# Polarization factor: 0.99
# Normalization factor: None
#
# 2th_deg	 I
3.335335913E+00  4.629539551E+03
3.345515043E+00  4.651873535E+03
3.355694174E+00  4.678041504E+03
3.365873304E+00  4.685441895E+03
3.376052435E+00  4.680954102E+03
3.386231566E+00  4.681146484E+03
3.396410696E+00  4.709382812E+03
3.406589827E+00  4.743540039E+03
3.416768958E+00  4.776901855E+03
3.426948088E+00  4.795250977E+03
3.437127219E+00  4.806713379E+03
3.447306349E+00  4.812988281E+03
3.457485480E+00  4.833436523E+03
3.467664611E+00  4.860313477E+03
3.477843741E+00  4.879844727E+03
3.488022872E+00  4.896497559E+03
3.498202002E+00  4.888421387E+03
3.508381133E+00  4.902207520E+03
3.518560264E+00  4.921683105E+03
3.528739394E+00  4.943936035E+03
3.538918525E+00  4.945082031E+03
3.549097656E+00  4.920544434E+03
3.559276786E+00  4.902171387E+03
3.569455917E+00  4.904282227E+03
3.579635047E+00  4.897332520E+03
3.589814178E+00  4.901136719E+03
3.599993309E+00  4.915770508E+03
3.610172439E+00  4.934230957E+03
3.620351570E+00  4.937330566E+03
3.630530701E+00  4.941088379E+03
3.640709831E+00  4.936920898E+03
3.650888962E+00  4.942231445E+03
3.661068092E+00  4.953328613E+03
3.671247223E+00  4.969246582E+03
3.681426354E+00  4.989931152E+03
3.691605484E+00  5.005030273E+03
3.701784615E+00  5.007343750E+03
3.711963745E+00  4.998601074E+03
3.722142876E+00  4.995895996E+03
3.732322007E+00  4.995630371E+03
3.742501137E+00  4.995615723E+03
3.752680268E+00  5.000396484E+03
3.762859399E+00  5.006187012E+03
3.773038529E+00  5.015634766E+03
3.783217660E+00  5.032937500E+03
3.793396790E+00  5.059101074E+03
3.803575921E+00  5.075799316E+03
3.813755052E+00  5.069335449E+03
3.823934182E+00  5.063822754E+03
3.834113313E+00  5.067073730E+03
3.844292444E+00  5.062907227E+03
3.854471574E+00  5.051436035E+03
3.864650705E+00  5.043755859E+03
3.874829835E+00  5.048800293E+03
3.885008966E+00  5.051835938E+03
3.895188097E+00  5.060195801E+03
3.905367227E+00  5.062853027E+03
3.915546358E+00  5.063272461E+03
3.925725488E+00  5.056570312E+03
3.935904619E+00  5.043188477E+03
3.946083750E+00  5.026216309E+03
3.956262880E+00  5.023089844E+03
3.966442011E+00  5.033552734E+03
3.976621142E+00  5.051070312E+03
3.986800272E+00  5.067361816E+03
3.996979403E+00  5.066316895E+03
4.007158533E+00  5.058037109E+03
4.017337664E+00  5.069672363E+03
4.027516795E+00  5.085252930E+03
4.037695925E+00  5.098948242E+03
4.047875056E+00  5.095562012E+03
4.058054187E+00  5.090708008E+03
4.068233317E+00  5.086513184E+03
4.078412448E+00  5.083002441E+03
4.088591578E+00  5.083022461E+03
4.098770709E+00  5.079865234E+03
4.108949840E+00  5.074131836E+03
4.119128970E+00  5.070141602E+03
4.129308101E+00  5.075925781E+03
4.139487231E+00  5.088855957E+03
4.149666362E+00  5.097708008E+03
4.159845493E+00  5.106956055E+03
4.170024623E+00  5.108957031E+03
4.180203754E+00  5.101754883E+03
4.190382885E+00  5.094277344E+03
4.200562015E+00  5.097568359E+03
4.210741146E+00  5.095220703E+03
4.220920276E+00  5.087719727E+03
4.231099407E+00  5.084030273E+03
4.241278538E+00  5.085378418E+03
4.251457668E+00  5.082393066E+03
4.261636799E+00  5.083284668E+03
4.271815930E+00  5.087554199E+03
4.281995060E+00  5.084327148E+03
4.292174191E+00  5.084773438E+03
4.302353321E+00  5.081351074E+03
4.312532452E+00  5.085338379E+03
4.322711583E+00  5.084872559E+03
4.332890713E+00  5.089148438E+03
4.343069844E+00  5.085384766E+03
4.353248974E+00  5.074245117E+03
4.363428105E+00  5.064482422E+03
4.373607236E+00  5.057508301E+03
4.383786366E+00  5.051519043E+03
4.393965497E+00  5.050946289E+03
4.404144628E+00  5.056502441E+03
4.414323758E+00  5.063857910E+03
4.424502889E+00  5.074530762E+03
4.434682019E+00  5.084035645E+03
4.444861150E+00  5.076984375E+03
4.455040281E+00  5.067966309E+03
4.465219411E+00  5.067214844E+03
4.475398542E+00  5.076776367E+03
4.485577673E+00  5.080500977E+03
4.495756803E+00  5.078956055E+03
4.505935934E+00  5.076485352E+03
4.516115064E+00  5.075053711E+03
4.526294195E+00  5.073585449E+03
4.536473326E+00  5.060549805E+03
4.546652456E+00  5.055886719E+03
4.556831587E+00  5.056101074E+03
4.567010717E+00  5.060130371E+03
4.577189848E+00  5.058315918E+03
4.587368979E+00  5.053196777E+03
4.597548109E+00  5.055209473E+03
4.607727240E+00  5.056283691E+03
4.617906371E+00  5.051071777E+03
4.628085501E+00  5.043623535E+03
4.638264632E+00  5.043066895E+03
4.648443762E+00  5.043780273E+03
4.658622893E+00  5.043917480E+03
4.668802024E+00  5.047210449E+03
4.678981154E+00  5.050261719E+03
4.689160285E+00  5.051371582E+03
4.699339415E+00  5.046808105E+03
4.709518546E+00  5.047911621E+03
4.719697677E+00  5.047256348E+03
4.729876807E+00  5.047663574E+03
4.740055938E+00  5.052481934E+03
4.750235069E+00  5.057690430E+03
4.760414199E+00  5.058461914E+03
4.770593330E+00  5.047684570E+03
4.780772460E+00  5.046325195E+03
4.790951591E+00  5.046760742E+03
4.801130722E+00  5.045027344E+03
4.811309852E+00  5.038227051E+03
4.821488983E+00  5.037212402E+03
4.831668114E+00  5.043943359E+03
4.841847244E+00  5.050729004E+03
4.852026375E+00  5.048023438E+03
4.862205505E+00  5.042497559E+03
4.872384636E+00  5.037631348E+03
4.882563767E+00  5.035202637E+03
4.892742897E+00  5.031020508E+03
4.902922028E+00  5.022599121E+03
4.913101158E+00  5.017295898E+03
4.923280289E+00  5.011086914E+03
4.933459420E+00  5.007728516E+03
4.943638550E+00  5.015015137E+03
4.953817681E+00  5.020762207E+03
4.963996812E+00  5.027774414E+03
4.974175942E+00  5.036276855E+03
4.984355073E+00  5.038222168E+03
4.994534203E+00  5.034992188E+03
5.004713334E+00  5.030953125E+03
5.014892465E+00  5.027785156E+03
5.025071595E+00  5.029877930E+03
5.035250726E+00  5.028927246E+03
5.045429857E+00  5.026132324E+03
5.055608987E+00  5.020596680E+03
5.065788118E+00  5.015656738E+03
5.075967248E+00  5.014425781E+03
5.086146379E+00  5.019736328E+03
5.096325510E+00  5.030378906E+03
5.106504640E+00  5.031991699E+03
5.116683771E+00  5.024250000E+03
5.126862901E+00  5.021966797E+03
5.137042032E+00  5.027645020E+03
5.147221163E+00  5.030103516E+03
5.157400293E+00  5.031707031E+03
5.167579424E+00  5.030551758E+03
5.177758555E+00  5.030977539E+03
5.187937685E+00  5.031214844E+03
5.198116816E+00  5.027856445E+03
5.208295946E+00  5.025253418E+03
5.218475077E+00  5.020769531E+03
5.228654208E+00  5.018874512E+03
5.238833338E+00  5.019792969E+03
5.249012469E+00  5.020504883E+03
5.259191600E+00  5.019010742E+03
5.269370730E+00  5.012305176E+03
5.279549861E+00  5.000331543E+03
5.289728991E+00  4.991985840E+03
5.299908122E+00  4.990892090E+03
5.310087253E+00  4.995091797E+03
5.320266383E+00  4.996662598E+03
5.330445514E+00  4.992172363E+03
5.340624644E+00  4.983662109E+03
5.350803775E+00  4.971687988E+03
5.360982906E+00  4.962006836E+03
5.371162036E+00  4.956882324E+03
5.381341167E+00  4.959552246E+03
5.391520298E+00  4.959810547E+03
5.401699428E+00  4.955982910E+03
5.411878559E+00  4.948543457E+03
5.422057689E+00  4.943091309E+03
5.432236820E+00  4.940414551E+03
5.442415951E+00  4.941984863E+03
5.452595081E+00  4.931637207E+03
5.462774212E+00  4.919860840E+03
5.472953343E+00  4.907513672E+03
5.483132473E+00  4.900543457E+03
5.493311604E+00  4.896995605E+03
5.503490734E+00  4.893333984E+03
5.513669865E+00  4.893088867E+03
5.523848996E+00  4.890413086E+03
5.534028126E+00  4.885409180E+03
5.544207257E+00  4.881108887E+03
5.554386387E+00  4.882854004E+03
5.564565518E+00  4.886331543E+03
5.574744649E+00  4.887991211E+03
5.584923779E+00  4.891643066E+03
5.595102910E+00  4.896165039E+03
5.605282041E+00  4.892890625E+03
5.615461171E+00  4.880556641E+03
5.625640302E+00  4.867355469E+03
5.635819432E+00  4.857816895E+03
5.645998563E+00  4.851463867E+03
5.656177694E+00  4.849861328E+03
5.666356824E+00  4.849709473E+03
5.676535955E+00  4.848751953E+03
5.686715086E+00  4.843578613E+03
5.696894216E+00  4.835579102E+03
5.707073347E+00  4.827092773E+03
5.717252477E+00  4.822631348E+03
5.727431608E+00  4.821682617E+03
5.737610739E+00  4.824844727E+03
5.747789869E+00  4.831654297E+03
5.757969000E+00  4.837546387E+03
5.768148130E+00  4.835529785E+03
5.778327261E+00  4.830812500E+03
5.788506392E+00  4.822890137E+03
5.798685522E+00  4.816662109E+03
5.808864653E+00  4.816278320E+03
5.819043784E+00  4.819190430E+03
5.829222914E+00  4.819098145E+03
5.839402045E+00  4.820244629E+03
5.849581175E+00  4.819496582E+03
5.859760306E+00  4.817531250E+03
5.869939437E+00  4.808529297E+03
5.880118567E+00  4.799144043E+03
5.890297698E+00  4.792334473E+03
5.900476829E+00  4.785975586E+03
5.910655959E+00  4.779660156E+03
5.920835090E+00  4.780206543E+03
5.931014220E+00  4.783909668E+03
5.941193351E+00  4.782334473E+03
5.951372482E+00  4.772657227E+03
5.961551612E+00  4.764785645E+03
5.971730743E+00  4.764446289E+03
5.981909873E+00  4.767851562E+03
5.992089004E+00  4.762677734E+03
6.002268135E+00  4.756112793E+03
6.012447265E+00  4.748425781E+03
6.022626396E+00  4.740050293E+03
6.032805527E+00  4.733722168E+03
6.042984657E+00  4.731908203E+03
6.053163788E+00  4.729220703E+03
6.063342918E+00  4.725642090E+03
6.073522049E+00  4.725266602E+03
6.083701180E+00  4.721290527E+03
6.093880310E+00  4.711481934E+03
6.104059441E+00  4.704639648E+03
6.114238572E+00  4.703437012E+03
6.124417702E+00  4.707675781E+03
6.134596833E+00  4.709227539E+03
6.144775963E+00  4.710198730E+03
6.154955094E+00  4.706897461E+03
6.165134225E+00  4.701269531E+03
6.175313355E+00  4.697443359E+03
6.185492486E+00  4.695336914E+03
6.195671616E+00  4.692103027E+03
6.205850747E+00  4.685479980E+03
6.216029878E+00  4.678379395E+03
6.226209008E+00  4.672944824E+03
6.236388139E+00  4.671573730E+03
6.246567270E+00  4.674790527E+03
6.256746400E+00  4.669297363E+03
6.266925531E+00  4.660791504E+03
6.277104661E+00  4.655693359E+03
6.287283792E+00  4.651290527E+03
6.297462923E+00  4.646303223E+03
6.307642053E+00  4.643942383E+03
6.317821184E+00  4.644105469E+03
6.328000315E+00  4.641893555E+03
6.338179445E+00  4.634822754E+03
6.348358576E+00  4.626961426E+03
6.358537706E+00  4.624939941E+03
6.368716837E+00  4.623095703E+03
6.378895968E+00  4.621640137E+03
6.389075098E+00  4.624431152E+03
6.399254229E+00  4.623270020E+03
6.409433359E+00  4.620662109E+03
6.419612490E+00  4.618437500E+03
6.429791621E+00  4.613163574E+03
6.439970751E+00  4.610486816E+03
6.450149882E+00  4.609609375E+03
6.460329013E+00  4.607093262E+03
6.470508143E+00  4.604703125E+03
6.480687274E+00  4.602013672E+03
6.490866404E+00  4.598098633E+03
6.501045535E+00  4.592535645E+03
6.511224666E+00  4.586740723E+03
6.521403796E+00  4.579157227E+03
6.531582927E+00  4.576247070E+03
6.541762058E+00  4.573087891E+03
6.551941188E+00  4.568856445E+03
6.562120319E+00  4.564810059E+03
6.572299449E+00  4.563171875E+03
6.582478580E+00  4.561522461E+03
6.592657711E+00  4.561021973E+03
6.602836841E+00  4.554976074E+03
6.613015972E+00  4.544786621E+03
6.623195102E+00  4.537475098E+03
6.633374233E+00  4.533435059E+03
6.643553364E+00  4.535469238E+03
6.653732494E+00  4.535010254E+03
6.663911625E+00  4.534338867E+03
6.674090756E+00  4.532855469E+03
6.684269886E+00  4.530607910E+03
6.694449017E+00  4.524564941E+03
6.704628147E+00  4.512605957E+03
6.714807278E+00  4.505328125E+03
6.724986409E+00  4.505364746E+03
6.735165539E+00  4.502109375E+03
6.745344670E+00  4.494124512E+03
6.755523800E+00  4.488054199E+03
6.765702931E+00  4.487922852E+03
6.775882062E+00  4.488606934E+03
6.786061192E+00  4.489262207E+03
6.796240323E+00  4.485750488E+03
6.806419454E+00  4.480977539E+03
6.816598584E+00  4.476462891E+03
6.826777715E+00  4.470900391E+03
6.836956845E+00  4.465764648E+03
6.847135976E+00  4.459213379E+03
6.857315107E+00  4.450235352E+03
6.867494237E+00  4.442699707E+03
6.877673368E+00  4.439883301E+03
6.887852499E+00  4.443931641E+03
6.898031629E+00  4.445031738E+03
6.908210760E+00  4.443217773E+03
6.918389890E+00  4.438287598E+03
6.928569021E+00  4.434635742E+03
6.938748152E+00  4.428172852E+03
6.948927282E+00  4.421985840E+03
6.959106413E+00  4.415824707E+03
6.969285543E+00  4.409632324E+03
6.979464674E+00  4.405522949E+03
6.989643805E+00  4.405120117E+03
6.999822935E+00  4.409821777E+03
7.010002066E+00  4.411275391E+03
7.020181197E+00  4.409435547E+03
7.030360327E+00  4.405884766E+03
7.040539458E+00  4.403032715E+03
7.050718588E+00  4.399647461E+03
7.060897719E+00  4.396540527E+03
7.071076850E+00  4.389623047E+03
7.081255980E+00  4.384121094E+03
7.091435111E+00  4.378065430E+03
7.101614242E+00  4.372303711E+03
7.111793372E+00  4.365686523E+03
7.121972503E+00  4.358145508E+03
7.132151633E+00  4.352197754E+03
7.142330764E+00  4.347721680E+03
7.152509895E+00  4.340021484E+03
7.162689025E+00  4.331310059E+03
7.172868156E+00  4.323845215E+03
7.183047286E+00  4.318851074E+03
7.193226417E+00  4.314573730E+03
7.203405548E+00  4.307928223E+03
7.213584678E+00  4.301421387E+03
7.223763809E+00  4.297926758E+03
7.233942940E+00  4.298486816E+03
7.244122070E+00  4.299203125E+03
7.254301201E+00  4.298591797E+03
7.264480331E+00  4.295641602E+03
7.274659462E+00  4.296346680E+03
7.284838593E+00  4.289213867E+03
7.295017723E+00  4.278210449E+03
7.305196854E+00  4.271775391E+03
7.315375985E+00  4.264152832E+03
7.325555115E+00  4.257502930E+03
7.335734246E+00  4.250443359E+03
7.345913376E+00  4.247736328E+03
7.356092507E+00  4.245828613E+03
7.366271638E+00  4.241414551E+03
7.376450768E+00  4.235678711E+03
7.386629899E+00  4.228829590E+03
7.396809029E+00  4.223161133E+03
7.406988160E+00  4.220332520E+03
7.417167291E+00  4.217704590E+03
7.427346421E+00  4.212623047E+03
7.437525552E+00  4.207315430E+03
7.447704683E+00  4.205050781E+03
7.457883813E+00  4.200938477E+03
7.468062944E+00  4.189965332E+03
7.478242074E+00  4.178847168E+03
7.488421205E+00  4.169829102E+03
7.498600336E+00  4.165612305E+03
7.508779466E+00  4.163769531E+03
7.518958597E+00  4.160970703E+03
7.529137728E+00  4.153719727E+03
7.539316858E+00  4.147385254E+03
7.549495989E+00  4.146285156E+03
7.559675119E+00  4.148273438E+03
7.569854250E+00  4.146320801E+03
7.580033381E+00  4.142632812E+03
7.590212511E+00  4.136127930E+03
7.600391642E+00  4.126746094E+03
7.610570772E+00  4.117106445E+03
7.620749903E+00  4.109312012E+03
7.630929034E+00  4.102120117E+03
7.641108164E+00  4.094857666E+03
7.651287295E+00  4.087681885E+03
7.661466426E+00  4.084989746E+03
7.671645556E+00  4.081165283E+03
7.681824687E+00  4.076956543E+03
7.692003817E+00  4.072468506E+03
7.702182948E+00  4.067446045E+03
7.712362079E+00  4.057517578E+03
7.722541209E+00  4.050126953E+03
7.732720340E+00  4.048007080E+03
7.742899471E+00  4.046979248E+03
7.753078601E+00  4.044726318E+03
7.763257732E+00  4.042959473E+03
7.773436862E+00  4.041390137E+03
7.783615993E+00  4.034567139E+03
7.793795124E+00  4.025290771E+03
7.803974254E+00  4.021074707E+03
7.814153385E+00  4.017071045E+03
7.824332515E+00  4.013982422E+03
7.834511646E+00  4.012579590E+03
7.844690777E+00  4.007949463E+03
7.854869907E+00  4.002512207E+03
7.865049038E+00  3.994551514E+03
7.875228169E+00  3.986256592E+03
7.885407299E+00  3.980803711E+03
7.895586430E+00  3.976504883E+03
7.905765560E+00  3.970404541E+03
7.915944691E+00  3.959927734E+03
7.926123822E+00  3.949804199E+03
7.936302952E+00  3.941700439E+03
7.946482083E+00  3.936691650E+03
7.956661214E+00  3.935928955E+03
7.966840344E+00  3.934378418E+03
7.977019475E+00  3.933564697E+03
7.987198605E+00  3.929767822E+03
7.997377736E+00  3.926192627E+03
8.007556867E+00  3.921947998E+03
8.017735997E+00  3.916808350E+03
8.027915128E+00  3.913486816E+03
8.038094258E+00  3.910309326E+03
8.048273389E+00  3.908593018E+03
8.058452520E+00  3.905826416E+03
8.068631650E+00  3.900983154E+03
8.078810781E+00  3.890792236E+03
8.088989912E+00  3.882459961E+03
8.099169042E+00  3.874231689E+03
8.109348173E+00  3.868118652E+03
8.119527303E+00  3.864538574E+03
8.129706434E+00  3.862974121E+03
8.139885565E+00  3.859723877E+03
8.150064695E+00  3.853427002E+03
8.160243826E+00  3.845532959E+03
8.170422957E+00  3.842190186E+03
8.180602087E+00  3.839252930E+03
8.190781218E+00  3.832335449E+03
8.200960348E+00  3.823553711E+03
8.211139479E+00  3.816997559E+03
8.221318610E+00  3.814108398E+03
8.231497740E+00  3.811928955E+03
8.241676871E+00  3.810870361E+03
8.251856001E+00  3.805267090E+03
8.262035132E+00  3.797865967E+03
8.272214263E+00  3.791609131E+03
8.282393393E+00  3.787558350E+03
8.292572524E+00  3.782160645E+03
8.302751655E+00  3.774316162E+03
8.312930785E+00  3.770229736E+03
8.323109916E+00  3.764401367E+03
8.333289046E+00  3.759602539E+03
8.343468177E+00  3.756305420E+03
8.353647308E+00  3.752062012E+03
8.363826438E+00  3.748037598E+03
8.374005569E+00  3.740706543E+03
8.384184700E+00  3.734066162E+03
8.394363830E+00  3.726388184E+03
8.404542961E+00  3.720498779E+03
8.414722091E+00  3.719226562E+03
8.424901222E+00  3.719110352E+03
8.435080353E+00  3.715350586E+03
8.445259483E+00  3.711729248E+03
8.455438614E+00  3.706406982E+03
8.465617744E+00  3.699383301E+03
8.475796875E+00  3.693583252E+03
8.485976006E+00  3.689781982E+03
8.496155136E+00  3.686404785E+03
8.506334267E+00  3.684374268E+03
8.516513398E+00  3.677897461E+03
8.526692528E+00  3.669282471E+03
8.536871659E+00  3.662627930E+03
8.547050789E+00  3.656814941E+03
8.557229920E+00  3.652249023E+03
8.567409051E+00  3.648971191E+03
8.577588181E+00  3.647254395E+03
8.587767312E+00  3.645896484E+03
8.597946443E+00  3.644291748E+03
8.608125573E+00  3.641809570E+03
8.618304704E+00  3.636189941E+03
8.628483834E+00  3.628981445E+03
8.638662965E+00  3.623867920E+03
8.648842096E+00  3.619763428E+03
8.659021226E+00  3.615918701E+03
8.669200357E+00  3.607779053E+03
8.679379487E+00  3.600057617E+03
8.689558618E+00  3.592231934E+03
8.699737749E+00  3.587843018E+03
8.709916879E+00  3.586148682E+03
8.720096010E+00  3.584157227E+03
8.730275141E+00  3.578784668E+03
8.740454271E+00  3.573961670E+03
8.750633402E+00  3.571233398E+03
8.760812532E+00  3.571243408E+03
8.770991663E+00  3.569905762E+03
8.781170794E+00  3.568810303E+03
8.791349924E+00  3.560295410E+03
8.801529055E+00  3.548735840E+03
8.811708185E+00  3.540375000E+03
8.821887316E+00  3.536317383E+03
8.832066447E+00  3.532115234E+03
8.842245577E+00  3.528862549E+03
8.852424708E+00  3.525607178E+03
8.862603839E+00  3.523394775E+03
8.872782969E+00  3.520276123E+03
8.882962100E+00  3.514093750E+03
8.893141230E+00  3.509022461E+03
8.903320361E+00  3.504852051E+03
8.913499492E+00  3.499322021E+03
8.923678622E+00  3.494386719E+03
8.933857753E+00  3.492054443E+03
8.944036884E+00  3.489852539E+03
8.954216014E+00  3.484884033E+03
8.964395145E+00  3.479369141E+03
8.974574275E+00  3.473395996E+03
8.984753406E+00  3.466275879E+03
8.994932537E+00  3.461235107E+03
9.005111667E+00  3.457297852E+03
9.015290798E+00  3.447890869E+03
9.025469928E+00  3.440553223E+03
9.035649059E+00  3.435528076E+03
9.045828190E+00  3.434077148E+03
9.056007320E+00  3.432887939E+03
9.066186451E+00  3.430579590E+03
9.076365582E+00  3.425982422E+03
9.086544712E+00  3.419906250E+03
9.096723843E+00  3.413209473E+03
9.106902973E+00  3.406251953E+03
9.117082104E+00  3.399498047E+03
9.127261235E+00  3.393450928E+03
9.137440365E+00  3.390072754E+03
9.147619496E+00  3.385603760E+03
9.157798627E+00  3.380909668E+03
9.167977757E+00  3.376879150E+03
9.178156888E+00  3.374504883E+03
9.188336018E+00  3.371456055E+03
9.198515149E+00  3.370444092E+03
9.208694280E+00  3.369249023E+03
9.218873410E+00  3.363372314E+03
9.229052541E+00  3.355911621E+03
9.239231671E+00  3.350110352E+03
9.249410802E+00  3.343682129E+03
9.259589933E+00  3.339750977E+03
9.269769063E+00  3.336093994E+03
9.279948194E+00  3.333930420E+03
9.290127325E+00  3.327960205E+03
9.300306455E+00  3.319508545E+03
9.310485586E+00  3.312052979E+03
9.320664716E+00  3.310052246E+03
9.330843847E+00  3.307275879E+03
9.341022978E+00  3.305426270E+03
9.351202108E+00  3.302683350E+03
9.361381239E+00  3.297718506E+03
9.371560370E+00  3.287918457E+03
9.381739500E+00  3.279624268E+03
9.391918631E+00  3.275538330E+03
9.402097761E+00  3.274032715E+03
9.412276892E+00  3.271398682E+03
9.422456023E+00  3.266153809E+03
9.432635153E+00  3.259746582E+03
9.442814284E+00  3.255597168E+03
9.452993414E+00  3.250562012E+03
9.463172545E+00  3.243656982E+03
9.473351676E+00  3.237782227E+03
9.483530806E+00  3.234911865E+03
9.493709937E+00  3.234768311E+03
9.503889068E+00  3.232874023E+03
9.514068198E+00  3.230142578E+03
9.524247329E+00  3.225222656E+03
9.534426459E+00  3.219291016E+03
9.544605590E+00  3.213391113E+03
9.554784721E+00  3.207943848E+03
9.564963851E+00  3.202982666E+03
9.575142982E+00  3.198381104E+03
9.585322113E+00  3.195955322E+03
9.595501243E+00  3.192439453E+03
9.605680374E+00  3.188354004E+03
9.615859504E+00  3.182910645E+03
9.626038635E+00  3.177984131E+03
9.636217766E+00  3.172590820E+03
9.646396896E+00  3.168291504E+03
9.656576027E+00  3.163779541E+03
9.666755157E+00  3.159576660E+03
9.676934288E+00  3.157529541E+03
9.687113419E+00  3.153481689E+03
9.697292549E+00  3.146259277E+03
9.707471680E+00  3.139710938E+03
9.717650811E+00  3.134205811E+03
9.727829941E+00  3.130023193E+03
9.738009072E+00  3.125909180E+03
9.748188202E+00  3.124663086E+03
9.758367333E+00  3.122717041E+03
9.768546464E+00  3.118287354E+03
9.778725594E+00  3.112562988E+03
9.788904725E+00  3.108817627E+03
9.799083856E+00  3.106749268E+03
9.809262986E+00  3.102792480E+03
9.819442117E+00  3.093082031E+03
9.829621247E+00  3.083312012E+03
9.839800378E+00  3.077291260E+03
9.849979509E+00  3.075922852E+03
9.860158639E+00  3.073445801E+03
9.870337770E+00  3.069321289E+03
9.880516900E+00  3.064355713E+03
9.890696031E+00  3.060048340E+03
9.900875162E+00  3.055627930E+03
9.911054292E+00  3.050835449E+03
9.921233423E+00  3.044871094E+03
9.931412554E+00  3.039754150E+03
9.941591684E+00  3.035995850E+03
9.951770815E+00  3.032684814E+03
9.961949945E+00  3.029835693E+03
9.972129076E+00  3.026839844E+03
9.982308207E+00  3.021699463E+03
9.992487337E+00  3.018484863E+03
1.000266647E+01  3.014387939E+03
1.001284560E+01  3.011403564E+03
1.002302473E+01  3.008918945E+03
1.003320386E+01  3.005284180E+03
1.004338299E+01  3.002912109E+03
1.005356212E+01  3.000799316E+03
1.006374125E+01  2.999269287E+03
1.007392038E+01  2.994700684E+03
1.008409951E+01  2.985236572E+03
1.009427864E+01  2.976919678E+03
1.010445777E+01  2.971197510E+03
1.011463690E+01  2.968685303E+03
1.012481604E+01  2.967525146E+03
1.013499517E+01  2.966709473E+03
1.014517430E+01  2.964190918E+03
1.015535343E+01  2.959413330E+03
1.016553256E+01  2.955509521E+03
1.017571169E+01  2.952194824E+03
1.018589082E+01  2.948205322E+03
1.019606995E+01  2.940808594E+03
1.020624908E+01  2.933092773E+03
1.021642821E+01  2.926519043E+03
1.022660734E+01  2.919400146E+03
1.023678647E+01  2.912286621E+03
1.024696560E+01  2.906869873E+03
1.025714473E+01  2.901978760E+03
1.026732386E+01  2.897541992E+03
1.027750299E+01  2.892818359E+03
1.028768213E+01  2.887631104E+03
1.029786126E+01  2.885712646E+03
1.030804039E+01  2.883303467E+03
1.031821952E+01  2.881492920E+03
1.032839865E+01  2.879410400E+03
1.033857778E+01  2.877452881E+03
1.034875691E+01  2.873852051E+03
1.035893604E+01  2.869799072E+03
1.036911517E+01  2.866664062E+03
1.037929430E+01  2.861875488E+03
1.038947343E+01  2.856617188E+03
1.039965256E+01  2.851354248E+03
1.040983169E+01  2.848372803E+03
1.042001082E+01  2.847014893E+03
1.043018995E+01  2.841877686E+03
1.044036908E+01  2.836617188E+03
1.045054822E+01  2.831603027E+03
1.046072735E+01  2.827904541E+03
1.047090648E+01  2.823563965E+03
1.048108561E+01  2.818534668E+03
1.049126474E+01  2.811827393E+03
1.050144387E+01  2.806091553E+03
1.051162300E+01  2.800331299E+03
1.052180213E+01  2.797454590E+03
1.053198126E+01  2.795794434E+03
1.054216039E+01  2.790977539E+03
1.055233952E+01  2.786457520E+03
1.056251865E+01  2.784247559E+03
1.057269778E+01  2.780758301E+03
1.058287691E+01  2.778996338E+03
1.059305604E+01  2.777078125E+03
1.060323517E+01  2.773840820E+03
1.061341431E+01  2.768609619E+03
1.062359344E+01  2.762357666E+03
1.063377257E+01  2.758988525E+03
1.064395170E+01  2.757122803E+03
1.065413083E+01  2.752201660E+03
1.066430996E+01  2.744652100E+03
1.067448909E+01  2.738934570E+03
1.068466822E+01  2.735314697E+03
1.069484735E+01  2.733678467E+03
1.070502648E+01  2.729821777E+03
1.071520561E+01  2.724669922E+03
1.072538474E+01  2.720748047E+03
1.073556387E+01  2.717636230E+03
1.074574300E+01  2.715591064E+03
1.075592213E+01  2.712326660E+03
1.076610126E+01  2.706887207E+03
1.077628039E+01  2.701939453E+03
1.078645953E+01  2.696815430E+03
1.079663866E+01  2.693308594E+03
1.080681779E+01  2.691958252E+03
1.081699692E+01  2.690400391E+03
1.082717605E+01  2.685604492E+03
1.083735518E+01  2.678378174E+03
1.084753431E+01  2.673435059E+03
1.085771344E+01  2.672536621E+03
1.086789257E+01  2.671663086E+03
1.087807170E+01  2.669013672E+03
1.088825083E+01  2.665515137E+03
1.089842996E+01  2.661684570E+03
1.090860909E+01  2.658192871E+03
1.091878822E+01  2.656738037E+03
1.092896735E+01  2.654117432E+03
1.093914648E+01  2.648984375E+03
1.094932562E+01  2.643988525E+03
1.095950475E+01  2.637056396E+03
1.096968388E+01  2.629522217E+03
1.097986301E+01  2.625268311E+03
1.099004214E+01  2.620996826E+03
1.100022127E+01  2.615385742E+03
1.101040040E+01  2.611718262E+03
1.102057953E+01  2.611703369E+03
1.103075866E+01  2.612250977E+03
1.104093779E+01  2.611050537E+03
1.105111692E+01  2.606477295E+03
1.106129605E+01  2.600634766E+03
1.107147518E+01  2.595203613E+03
1.108165431E+01  2.591043213E+03
1.109183344E+01  2.589262939E+03
1.110201257E+01  2.587210693E+03
1.111219171E+01  2.584229492E+03
1.112237084E+01  2.580808105E+03
1.113254997E+01  2.575317627E+03
1.114272910E+01  2.571384033E+03
1.115290823E+01  2.570648682E+03
1.116308736E+01  2.564454834E+03
1.117326649E+01  2.557803955E+03
1.118344562E+01  2.552115479E+03
1.119362475E+01  2.549289795E+03
1.120380388E+01  2.546709717E+03
1.121398301E+01  2.543092529E+03
1.122416214E+01  2.539601318E+03
1.123434127E+01  2.539111328E+03
1.124452040E+01  2.537006104E+03
1.125469953E+01  2.532549072E+03
1.126487866E+01  2.530518799E+03
1.127505780E+01  2.529120361E+03
1.128523693E+01  2.526670410E+03
1.129541606E+01  2.521855469E+03
1.130559519E+01  2.518281982E+03
1.131577432E+01  2.514329590E+03
1.132595345E+01  2.510129150E+03
1.133613258E+01  2.504016846E+03
1.134631171E+01  2.497586182E+03
1.135649084E+01  2.494116455E+03
1.136666997E+01  2.492456787E+03
1.137684910E+01  2.489911377E+03
1.138702823E+01  2.485404541E+03
1.139720736E+01  2.479938232E+03
1.140738649E+01  2.473943604E+03
1.141756562E+01  2.470652588E+03
1.142774475E+01  2.470537842E+03
1.143792389E+01  2.468931152E+03
1.144810302E+01  2.466708252E+03
1.145828215E+01  2.465329590E+03
1.146846128E+01  2.466133545E+03
1.147864041E+01  2.464509766E+03
1.148881954E+01  2.460998779E+03
1.149899867E+01  2.459183105E+03
1.150917780E+01  2.459114990E+03
1.151935693E+01  2.456517090E+03
1.152953606E+01  2.453987061E+03
1.153971519E+01  2.449955566E+03
1.154989432E+01  2.445023682E+03
1.156007345E+01  2.441545410E+03
1.157025258E+01  2.440270264E+03
1.158043171E+01  2.440282471E+03
1.159061084E+01  2.438184082E+03
1.160078998E+01  2.434932617E+03
1.161096911E+01  2.432370361E+03
1.162114824E+01  2.428873535E+03
1.163132737E+01  2.425885986E+03
1.164150650E+01  2.418658691E+03
1.165168563E+01  2.413662354E+03
1.166186476E+01  2.410944092E+03
1.167204389E+01  2.410768066E+03
1.168222302E+01  2.410409424E+03
1.169240215E+01  2.407172607E+03
1.170258128E+01  2.404822510E+03
1.171276041E+01  2.401857422E+03
1.172293954E+01  2.398313721E+03
1.173311867E+01  2.394376709E+03
1.174329780E+01  2.391006836E+03
1.175347693E+01  2.389472168E+03
1.176365606E+01  2.385295898E+03
1.177383520E+01  2.381360107E+03
1.178401433E+01  2.378673096E+03
1.179419346E+01  2.376330566E+03
1.180437259E+01  2.374935547E+03
1.181455172E+01  2.373237061E+03
1.182473085E+01  2.372268311E+03
1.183490998E+01  2.369538330E+03
1.184508911E+01  2.363623535E+03
1.185526824E+01  2.357314697E+03
1.186544737E+01  2.356624512E+03
1.187562650E+01  2.356334473E+03
1.188580563E+01  2.354397461E+03
1.189598476E+01  2.350745605E+03
1.190616389E+01  2.348284912E+03
1.191634302E+01  2.344362549E+03
1.192652215E+01  2.340161621E+03
1.193670129E+01  2.335298828E+03
1.194688042E+01  2.333494141E+03
1.195705955E+01  2.332818359E+03
1.196723868E+01  2.330101807E+03
1.197741781E+01  2.326680664E+03
1.198759694E+01  2.325416016E+03
1.199777607E+01  2.323692139E+03
1.200795520E+01  2.320606201E+03
1.201813433E+01  2.319197021E+03
1.202831346E+01  2.319550537E+03
1.203849259E+01  2.317333008E+03
1.204867172E+01  2.312889648E+03
1.205885085E+01  2.308183350E+03
1.206902998E+01  2.303362793E+03
1.207920911E+01  2.299192139E+03
1.208938824E+01  2.295787842E+03
1.209956738E+01  2.294834473E+03
1.210974651E+01  2.292371826E+03
1.211992564E+01  2.291036377E+03
1.213010477E+01  2.289272461E+03
1.214028390E+01  2.286433594E+03
1.215046303E+01  2.281498779E+03
1.216064216E+01  2.279124512E+03
1.217082129E+01  2.277216797E+03
1.218100042E+01  2.275102295E+03
1.219117955E+01  2.272802979E+03
1.220135868E+01  2.269498291E+03
1.221153781E+01  2.265532715E+03
1.222171694E+01  2.262545410E+03
1.223189607E+01  2.260592285E+03
1.224207520E+01  2.258876709E+03
1.225225433E+01  2.257001709E+03
1.226243347E+01  2.255917969E+03
1.227261260E+01  2.250486572E+03
1.228279173E+01  2.245729004E+03
1.229297086E+01  2.244453369E+03
1.230314999E+01  2.242649902E+03
1.231332912E+01  2.239925781E+03
1.232350825E+01  2.237801270E+03
1.233368738E+01  2.234628662E+03
1.234386651E+01  2.232896729E+03
1.235404564E+01  2.232434570E+03
1.236422477E+01  2.229907227E+03
1.237440390E+01  2.225954102E+03
1.238458303E+01  2.222341797E+03
1.239476216E+01  2.218822266E+03
1.240494129E+01  2.214376221E+03
1.241512042E+01  2.213075439E+03
1.242529956E+01  2.214700439E+03
1.243547869E+01  2.214157471E+03
1.244565782E+01  2.210928467E+03
1.245583695E+01  2.207004395E+03
1.246601608E+01  2.203383789E+03
1.247619521E+01  2.201455566E+03
1.248637434E+01  2.199616211E+03
1.249655347E+01  2.198928955E+03
1.250673260E+01  2.198393066E+03
1.251691173E+01  2.197160645E+03
1.252709086E+01  2.192563965E+03
1.253726999E+01  2.186510742E+03
1.254744912E+01  2.181929443E+03
1.255762825E+01  2.179843018E+03
1.256780738E+01  2.176889160E+03
1.257798651E+01  2.172571289E+03
1.258816565E+01  2.168952637E+03
1.259834478E+01  2.170120361E+03
1.260852391E+01  2.171201904E+03
1.261870304E+01  2.169451172E+03
1.262888217E+01  2.165928955E+03
1.263906130E+01  2.162924072E+03
1.264924043E+01  2.161473633E+03
1.265941956E+01  2.160832520E+03
1.266959869E+01  2.157740723E+03
1.267977782E+01  2.154177979E+03
1.268995695E+01  2.151466309E+03
1.270013608E+01  2.149113037E+03
1.271031521E+01  2.144508301E+03
1.272049434E+01  2.140006104E+03
1.273067347E+01  2.138959961E+03
1.274085260E+01  2.138569092E+03
1.275103173E+01  2.138421143E+03
1.276121087E+01  2.137307861E+03
1.277139000E+01  2.133992676E+03
1.278156913E+01  2.130627930E+03
1.279174826E+01  2.129170898E+03
1.280192739E+01  2.127422852E+03
1.281210652E+01  2.124329834E+03
1.282228565E+01  2.119617432E+03
1.283246478E+01  2.115226807E+03
1.284264391E+01  2.114880127E+03
1.285282304E+01  2.114210693E+03
1.286300217E+01  2.110112549E+03
1.287318130E+01  2.105808105E+03
1.288336043E+01  2.104839844E+03
1.289353956E+01  2.106604492E+03
1.290371869E+01  2.106521240E+03
1.291389782E+01  2.104265869E+03
1.292407696E+01  2.101651611E+03
1.293425609E+01  2.100840332E+03
1.294443522E+01  2.100599121E+03
1.295461435E+01  2.097518066E+03
1.296479348E+01  2.094577393E+03
1.297497261E+01  2.092505859E+03
1.298515174E+01  2.091647705E+03
1.299533087E+01  2.089281494E+03
1.300551000E+01  2.086318359E+03
1.301568913E+01  2.082374512E+03
1.302586826E+01  2.079311768E+03
1.303604739E+01  2.076979492E+03
1.304622652E+01  2.075190674E+03
1.305640565E+01  2.072821289E+03
1.306658478E+01  2.072973389E+03
1.307676391E+01  2.071993164E+03
1.308694305E+01  2.070131104E+03
1.309712218E+01  2.065909424E+03
1.310730131E+01  2.061578857E+03
1.311748044E+01  2.057701172E+03
1.312765957E+01  2.056538574E+03
1.313783870E+01  2.055748291E+03
1.314801783E+01  2.054962158E+03
1.315819696E+01  2.052519775E+03
1.316837609E+01  2.050664062E+03
1.317855522E+01  2.048878662E+03
1.318873435E+01  2.046635986E+03
1.319891348E+01  2.043256714E+03
1.320909261E+01  2.039056152E+03
1.321927174E+01  2.036549316E+03
1.322945087E+01  2.036259888E+03
1.323963000E+01  2.035189697E+03
1.324980914E+01  2.033306152E+03
1.325998827E+01  2.030937988E+03
1.327016740E+01  2.026957886E+03
1.328034653E+01  2.024727905E+03
1.329052566E+01  2.023056763E+03
1.330070479E+01  2.023039917E+03
1.331088392E+01  2.023140991E+03
1.332106305E+01  2.021425171E+03
1.333124218E+01  2.018090820E+03
1.334142131E+01  2.016097046E+03
1.335160044E+01  2.013592285E+03
1.336177957E+01  2.010565063E+03
1.337195870E+01  2.007734375E+03
1.338213783E+01  2.005890503E+03
1.339231696E+01  2.004389526E+03
1.340249609E+01  2.002629150E+03
1.341267523E+01  1.999383545E+03
1.342285436E+01  1.994812256E+03
1.343303349E+01  1.991311157E+03
1.344321262E+01  1.988672729E+03
1.345339175E+01  1.986195068E+03
1.346357088E+01  1.985437622E+03
1.347375001E+01  1.985367065E+03
1.348392914E+01  1.982858765E+03
1.349410827E+01  1.980434204E+03
1.350428740E+01  1.978492432E+03
1.351446653E+01  1.977287231E+03
1.352464566E+01  1.977001831E+03
1.353482479E+01  1.975179199E+03
1.354500392E+01  1.971096191E+03
1.355518305E+01  1.967608276E+03
1.356536218E+01  1.967356567E+03
1.357554132E+01  1.966815186E+03
1.358572045E+01  1.962990112E+03
1.359589958E+01  1.961851562E+03
1.360607871E+01  1.961912476E+03
1.361625784E+01  1.960085571E+03
1.362643697E+01  1.959270996E+03
1.363661610E+01  1.959493164E+03
1.364679523E+01  1.957910156E+03
1.365697436E+01  1.954650146E+03
1.366715349E+01  1.952297607E+03
1.367733262E+01  1.949847656E+03
1.368751175E+01  1.946299072E+03
1.369769088E+01  1.943179932E+03
1.370787001E+01  1.941800293E+03
1.371804914E+01  1.940909180E+03
1.372822827E+01  1.938887085E+03
1.373840741E+01  1.936568359E+03
1.374858654E+01  1.935362549E+03
1.375876567E+01  1.933714233E+03
1.376894480E+01  1.932463013E+03
1.377912393E+01  1.932494507E+03
1.378930306E+01  1.932257690E+03
1.379948219E+01  1.930741821E+03
1.380966132E+01  1.930609009E+03
1.381984045E+01  1.930349243E+03
1.383001958E+01  1.928248169E+03
1.384019871E+01  1.924813599E+03
1.385037784E+01  1.921008057E+03
1.386055697E+01  1.917362061E+03
1.387073610E+01  1.914750244E+03
1.388091523E+01  1.914169189E+03
1.389109436E+01  1.914084351E+03
1.390127349E+01  1.912864502E+03
1.391145263E+01  1.912241089E+03
1.392163176E+01  1.911815063E+03
1.393181089E+01  1.910104004E+03
1.394199002E+01  1.908432617E+03
1.395216915E+01  1.904154541E+03
1.396234828E+01  1.900846802E+03
1.397252741E+01  1.899844360E+03
1.398270654E+01  1.899599365E+03
1.399288567E+01  1.897289917E+03
1.400306480E+01  1.896029053E+03
1.401324393E+01  1.895072754E+03
1.402342306E+01  1.894392090E+03
1.403360219E+01  1.893650269E+03
1.404378132E+01  1.891868164E+03
1.405396045E+01  1.891260742E+03
1.406413958E+01  1.889728027E+03
1.407431872E+01  1.887964600E+03
1.408449785E+01  1.886161621E+03
1.409467698E+01  1.884528809E+03
1.410485611E+01  1.882640137E+03
1.411503524E+01  1.881274658E+03
1.412521437E+01  1.878734131E+03
1.413539350E+01  1.876015869E+03
1.414557263E+01  1.873072388E+03
1.415575176E+01  1.871392456E+03
1.416593089E+01  1.869632324E+03
1.417611002E+01  1.867444702E+03
1.418628915E+01  1.865409546E+03
1.419646828E+01  1.863964355E+03
1.420664741E+01  1.862885620E+03
1.421682654E+01  1.861635132E+03
1.422700567E+01  1.860096924E+03
1.423718481E+01  1.858385254E+03
1.424736394E+01  1.856925781E+03
1.425754307E+01  1.854181641E+03
1.426772220E+01  1.851636108E+03
1.427790133E+01  1.850090210E+03
1.428808046E+01  1.849393555E+03
1.429825959E+01  1.850365112E+03
1.430843872E+01  1.850270630E+03
1.431861785E+01  1.848360962E+03
1.432879698E+01  1.845198608E+03
1.433897611E+01  1.841712524E+03
1.434915524E+01  1.839077026E+03
1.435933437E+01  1.837237549E+03
1.436951350E+01  1.835105225E+03
1.437969263E+01  1.834516479E+03
1.438987176E+01  1.834196045E+03
1.440005090E+01  1.833283691E+03
1.441023003E+01  1.830927490E+03
1.442040916E+01  1.829232300E+03
1.443058829E+01  1.826663086E+03
1.444076742E+01  1.823458740E+03
1.445094655E+01  1.822933594E+03
1.446112568E+01  1.824423706E+03
1.447130481E+01  1.823659912E+03
1.448148394E+01  1.822104858E+03
1.449166307E+01  1.820741089E+03
1.450184220E+01  1.820831177E+03
1.451202133E+01  1.821075684E+03
1.452220046E+01  1.820917969E+03
1.453237959E+01  1.820795776E+03
1.454255872E+01  1.819767822E+03
1.455273785E+01  1.818026123E+03
1.456291699E+01  1.816485229E+03
1.457309612E+01  1.814615967E+03
1.458327525E+01  1.812819946E+03
1.459345438E+01  1.812325928E+03
1.460363351E+01  1.810784546E+03
1.461381264E+01  1.807719727E+03
1.462399177E+01  1.805937378E+03
1.463417090E+01  1.803310181E+03
1.464435003E+01  1.800109253E+03
1.465452916E+01  1.799988037E+03
1.466470829E+01  1.800711548E+03
1.467488742E+01  1.800864624E+03
1.468506655E+01  1.799251953E+03
1.469524568E+01  1.797283203E+03
1.470542481E+01  1.793639282E+03
1.471560394E+01  1.790912109E+03
1.472578308E+01  1.790652832E+03
1.473596221E+01  1.791521118E+03
1.474614134E+01  1.791174683E+03
1.475632047E+01  1.790756836E+03
1.476649960E+01  1.788440063E+03
1.477667873E+01  1.785555786E+03
1.478685786E+01  1.783975098E+03
1.479703699E+01  1.784149414E+03
1.480721612E+01  1.783799438E+03
1.481739525E+01  1.784307861E+03
1.482757438E+01  1.784804932E+03
1.483775351E+01  1.783301880E+03
1.484793264E+01  1.780864502E+03
1.485811177E+01  1.779907104E+03
1.486829090E+01  1.778008911E+03
1.487847003E+01  1.776238281E+03
1.488864916E+01  1.776064453E+03
1.489882830E+01  1.775984985E+03
1.490900743E+01  1.775000122E+03
1.491918656E+01  1.774250244E+03
1.492936569E+01  1.772699219E+03
1.493954482E+01  1.769897339E+03
1.494972395E+01  1.768256592E+03
1.495990308E+01  1.768686523E+03
1.497008221E+01  1.768008423E+03
1.498026134E+01  1.765674561E+03
1.499044047E+01  1.766501709E+03
1.500061960E+01  1.767687378E+03
1.501079873E+01  1.765186890E+03
1.502097786E+01  1.762865967E+03
1.503115699E+01  1.761441162E+03
1.504133612E+01  1.760268799E+03
1.505151525E+01  1.757407959E+03
1.506169439E+01  1.754505615E+03
1.507187352E+01  1.753643921E+03
1.508205265E+01  1.752894165E+03
1.509223178E+01  1.751850464E+03
1.510241091E+01  1.752775635E+03
1.511259004E+01  1.752181885E+03
1.512276917E+01  1.751720093E+03
1.513294830E+01  1.750482178E+03
1.514312743E+01  1.748569580E+03
1.515330656E+01  1.746643311E+03
1.516348569E+01  1.746935181E+03
1.517366482E+01  1.747874268E+03
1.518384395E+01  1.748090820E+03
1.519402308E+01  1.748038452E+03
1.520420221E+01  1.746484619E+03
1.521438134E+01  1.743656616E+03
1.522456048E+01  1.741489746E+03
1.523473961E+01  1.738920410E+03
1.524491874E+01  1.736719360E+03
1.525509787E+01  1.736082886E+03
1.526527700E+01  1.735981567E+03
1.527545613E+01  1.735424683E+03
1.528563526E+01  1.735631348E+03
1.529581439E+01  1.737224731E+03
1.530599352E+01  1.736258423E+03
1.531617265E+01  1.734223389E+03
1.532635178E+01  1.732387939E+03
1.533653091E+01  1.730989990E+03
1.534671004E+01  1.728857056E+03
1.535688917E+01  1.727547119E+03
1.536706830E+01  1.726731445E+03
1.537724743E+01  1.724938843E+03
1.538742657E+01  1.723758179E+03
1.539760570E+01  1.722323608E+03
1.540778483E+01  1.722168823E+03
1.541796396E+01  1.720130859E+03
1.542814309E+01  1.718135620E+03
1.543832222E+01  1.717728516E+03
1.544850135E+01  1.717053345E+03
1.545868048E+01  1.716199219E+03
1.546885961E+01  1.714822388E+03
1.547903874E+01  1.713588867E+03
1.548921787E+01  1.714028320E+03
1.549939700E+01  1.713237549E+03
1.550957613E+01  1.712291382E+03
1.551975526E+01  1.712591187E+03
1.552993439E+01  1.713153809E+03
1.554011352E+01  1.714007812E+03
1.555029266E+01  1.711921143E+03
1.556047179E+01  1.708616089E+03
1.557065092E+01  1.704892212E+03
1.558083005E+01  1.703835815E+03
1.559100918E+01  1.703468018E+03
1.560118831E+01  1.701503662E+03
1.561136744E+01  1.699481689E+03
1.562154657E+01  1.698426270E+03
1.563172570E+01  1.699321045E+03
1.564190483E+01  1.701790283E+03
1.565208396E+01  1.702846924E+03
1.566226309E+01  1.702028320E+03
1.567244222E+01  1.700148438E+03
1.568262135E+01  1.698655273E+03
1.569280048E+01  1.697778809E+03
1.570297961E+01  1.696751709E+03
1.571315875E+01  1.695564209E+03
1.572333788E+01  1.692167480E+03
1.573351701E+01  1.689298340E+03
1.574369614E+01  1.688170532E+03
1.575387527E+01  1.686596436E+03
1.576405440E+01  1.687146118E+03
1.577423353E+01  1.687118896E+03
1.578441266E+01  1.686365479E+03
1.579459179E+01  1.685909302E+03
1.580477092E+01  1.685314209E+03
1.581495005E+01  1.683795532E+03
1.582512918E+01  1.681182007E+03
1.583530831E+01  1.679381348E+03
1.584548744E+01  1.679888428E+03
1.585566657E+01  1.679553711E+03
1.586584570E+01  1.678934814E+03
1.587602483E+01  1.677892822E+03
1.588620397E+01  1.676183228E+03
1.589638310E+01  1.675516724E+03
1.590656223E+01  1.675665894E+03
1.591674136E+01  1.675382446E+03
1.592692049E+01  1.673766724E+03
1.593709962E+01  1.671825928E+03
1.594727875E+01  1.671122070E+03
1.595745788E+01  1.669932251E+03
1.596763701E+01  1.669641357E+03
1.597781614E+01  1.670188843E+03
1.598799527E+01  1.668355469E+03
1.599817440E+01  1.666570679E+03
1.600835353E+01  1.666016357E+03
1.601853266E+01  1.665724731E+03
1.602871179E+01  1.666869507E+03
1.603889092E+01  1.667148193E+03
1.604907006E+01  1.664627075E+03
1.605924919E+01  1.662004395E+03
1.606942832E+01  1.661493042E+03
1.607960745E+01  1.661797119E+03
1.608978658E+01  1.660757812E+03
1.609996571E+01  1.659054199E+03
1.611014484E+01  1.659393066E+03
1.612032397E+01  1.660809814E+03
1.613050310E+01  1.659775146E+03
1.614068223E+01  1.656847290E+03
1.615086136E+01  1.655187256E+03
1.616104049E+01  1.652000244E+03
1.617121962E+01  1.650778687E+03
1.618139875E+01  1.652228516E+03
1.619157788E+01  1.652082397E+03
1.620175701E+01  1.650439453E+03
1.621193615E+01  1.650431641E+03
1.622211528E+01  1.650396851E+03
1.623229441E+01  1.650203491E+03
1.624247354E+01  1.651125610E+03
1.625265267E+01  1.651071289E+03
1.626283180E+01  1.649934448E+03
1.627301093E+01  1.646885620E+03
1.628319006E+01  1.644764404E+03
1.629336919E+01  1.642722900E+03
1.630354832E+01  1.641023926E+03
1.631372745E+01  1.640106445E+03
1.632390658E+01  1.639517334E+03
1.633408571E+01  1.638444092E+03
1.634426484E+01  1.636578491E+03
1.635444397E+01  1.634728027E+03
1.636462310E+01  1.635181396E+03
1.637480224E+01  1.635861450E+03
1.638498137E+01  1.634947510E+03
1.639516050E+01  1.632870972E+03
1.640533963E+01  1.631203857E+03
1.641551876E+01  1.631609497E+03
1.642569789E+01  1.631695190E+03
1.643587702E+01  1.632635254E+03
1.644605615E+01  1.631519653E+03
1.645623528E+01  1.629765381E+03
1.646641441E+01  1.629301270E+03
1.647659354E+01  1.629022949E+03
1.648677267E+01  1.626435791E+03
1.649695180E+01  1.623827026E+03
1.650713093E+01  1.623381470E+03
1.651731006E+01  1.623539673E+03
1.652748919E+01  1.622811401E+03
1.653766833E+01  1.621225830E+03
1.654784746E+01  1.620201904E+03
1.655802659E+01  1.618107788E+03
1.656820572E+01  1.615781006E+03
1.657838485E+01  1.614672485E+03
1.658856398E+01  1.614635376E+03
1.659874311E+01  1.615090698E+03
1.660892224E+01  1.616445190E+03
1.661910137E+01  1.616662598E+03
1.662928050E+01  1.614555420E+03
1.663945963E+01  1.613343384E+03
1.664963876E+01  1.612775757E+03
1.665981789E+01  1.610905151E+03
1.666999702E+01  1.609628540E+03
1.668017615E+01  1.611102417E+03
1.669035528E+01  1.610853882E+03
1.670053442E+01  1.609230103E+03
1.671071355E+01  1.608097900E+03
1.672089268E+01  1.608261841E+03
1.673107181E+01  1.607717041E+03
1.674125094E+01  1.607352539E+03
1.675143007E+01  1.606611328E+03
1.676160920E+01  1.604633545E+03
1.677178833E+01  1.601880249E+03
1.678196746E+01  1.601428345E+03
1.679214659E+01  1.602522583E+03
1.680232572E+01  1.601613647E+03
1.681250485E+01  1.600916748E+03
1.682268398E+01  1.599370605E+03
1.683286311E+01  1.598408691E+03
1.684304224E+01  1.598119263E+03
1.685322137E+01  1.597991211E+03
1.686340050E+01  1.597051514E+03
1.687357964E+01  1.596820801E+03
1.688375877E+01  1.595699829E+03
1.689393790E+01  1.593547974E+03
1.690411703E+01  1.592768433E+03
1.691429616E+01  1.591144165E+03
1.692447529E+01  1.589006348E+03
1.693465442E+01  1.587463745E+03
1.694483355E+01  1.587941162E+03
1.695501268E+01  1.588593872E+03
1.696519181E+01  1.588059448E+03
1.697537094E+01  1.586274658E+03
1.698555007E+01  1.586149048E+03
1.699572920E+01  1.586015015E+03
1.700590833E+01  1.585817749E+03
1.701608746E+01  1.584327881E+03
1.702626659E+01  1.582870361E+03
1.703644573E+01  1.583821045E+03
1.704662486E+01  1.583798218E+03
1.705680399E+01  1.581326416E+03
1.706698312E+01  1.579043213E+03
1.707716225E+01  1.580132080E+03
1.708734138E+01  1.580749023E+03
1.709752051E+01  1.580029785E+03
1.710769964E+01  1.577488403E+03
1.711787877E+01  1.575619263E+03
1.712805790E+01  1.576043213E+03
1.713823703E+01  1.577091187E+03
1.714841616E+01  1.576297485E+03
1.715859529E+01  1.575540649E+03
1.716877442E+01  1.575676147E+03
1.717895355E+01  1.575405029E+03
1.718913268E+01  1.573636841E+03
1.719931182E+01  1.572550781E+03
1.720949095E+01  1.574449585E+03
1.721967008E+01  1.575010254E+03
1.722984921E+01  1.573713867E+03
1.724002834E+01  1.572346558E+03
1.725020747E+01  1.570724976E+03
1.726038660E+01  1.568342651E+03
1.727056573E+01  1.565129150E+03
1.728074486E+01  1.563420654E+03
1.729092399E+01  1.564282837E+03
1.730110312E+01  1.565234375E+03
1.731128225E+01  1.565628174E+03
1.732146138E+01  1.564001221E+03
1.733164051E+01  1.562918213E+03
1.734181964E+01  1.563750488E+03
1.735199877E+01  1.562790161E+03
1.736217791E+01  1.562687744E+03
1.737235704E+01  1.562076050E+03
1.738253617E+01  1.560160767E+03
1.739271530E+01  1.558351685E+03
1.740289443E+01  1.558215698E+03
1.741307356E+01  1.559343262E+03
1.742325269E+01  1.559192871E+03
1.743343182E+01  1.559926636E+03
1.744361095E+01  1.559546021E+03
1.745379008E+01  1.557431885E+03
1.746396921E+01  1.555041748E+03
1.747414834E+01  1.553655884E+03
1.748432747E+01  1.552474487E+03
1.749450660E+01  1.551246094E+03
1.750468573E+01  1.551574097E+03
1.751486486E+01  1.551681030E+03
1.752504400E+01  1.550739380E+03
1.753522313E+01  1.551601440E+03
1.754540226E+01  1.553145386E+03
1.755558139E+01  1.552229248E+03
1.756576052E+01  1.551982178E+03
1.757593965E+01  1.551334473E+03
1.758611878E+01  1.549350464E+03
1.759629791E+01  1.547412354E+03
1.760647704E+01  1.546876587E+03
1.761665617E+01  1.546118774E+03
1.762683530E+01  1.546048340E+03
1.763701443E+01  1.546070068E+03
1.764719356E+01  1.546036987E+03
1.765737269E+01  1.545125977E+03
1.766755182E+01  1.542491333E+03
1.767773095E+01  1.540481323E+03
1.768791009E+01  1.539115479E+03
1.769808922E+01  1.538423340E+03
1.770826835E+01  1.537526001E+03
1.771844748E+01  1.538354492E+03
1.772862661E+01  1.538552856E+03
1.773880574E+01  1.538031616E+03
1.774898487E+01  1.536058716E+03
1.775916400E+01  1.534501953E+03
1.776934313E+01  1.534332764E+03
1.777952226E+01  1.534496826E+03
1.778970139E+01  1.535018066E+03
1.779988052E+01  1.535074341E+03
1.781005965E+01  1.533105591E+03
1.782023878E+01  1.532140381E+03
1.783041791E+01  1.532098511E+03
1.784059704E+01  1.528644653E+03
1.785077618E+01  1.526173462E+03
1.786095531E+01  1.526150757E+03
1.787113444E+01  1.526587524E+03
1.788131357E+01  1.526771606E+03
1.789149270E+01  1.527455811E+03
1.790167183E+01  1.528114380E+03
1.791185096E+01  1.526822144E+03
1.792203009E+01  1.526000488E+03
1.793220922E+01  1.525615356E+03
1.794238835E+01  1.525117310E+03
1.795256748E+01  1.524921265E+03
1.796274661E+01  1.524414551E+03
1.797292574E+01  1.522634155E+03
1.798310487E+01  1.520927246E+03
1.799328400E+01  1.520520752E+03
1.800346313E+01  1.521478027E+03
1.801364226E+01  1.522983154E+03
1.802382140E+01  1.524863892E+03
1.803400053E+01  1.526113525E+03
1.804417966E+01  1.525389648E+03
1.805435879E+01  1.524279297E+03
1.806453792E+01  1.524173584E+03
1.807471705E+01  1.525560913E+03
1.808489618E+01  1.529015259E+03
1.809507531E+01  1.531738770E+03
1.810525444E+01  1.532488159E+03
1.811543357E+01  1.533129517E+03
1.812561270E+01  1.534720093E+03
1.813579183E+01  1.535588989E+03
1.814597096E+01  1.534397827E+03
1.815615009E+01  1.531744507E+03
1.816632922E+01  1.530627686E+03
1.817650835E+01  1.529125244E+03
1.818668749E+01  1.525385742E+03
1.819686662E+01  1.520590576E+03
1.820704575E+01  1.516301880E+03
1.821722488E+01  1.513522827E+03
1.822740401E+01  1.511526001E+03
1.823758314E+01  1.509819702E+03
1.824776227E+01  1.508648315E+03
1.825794140E+01  1.509244141E+03
1.826812053E+01  1.508219971E+03
1.827829966E+01  1.505620483E+03
1.828847879E+01  1.504561157E+03
1.829865792E+01  1.504672241E+03
1.830883705E+01  1.504015869E+03
1.831901618E+01  1.503350708E+03
1.832919531E+01  1.502512817E+03
1.833937444E+01  1.502457153E+03
1.834955358E+01  1.502526611E+03
1.835973271E+01  1.501445679E+03
1.836991184E+01  1.500645020E+03
1.838009097E+01  1.499786743E+03
1.839027010E+01  1.498523682E+03
1.840044923E+01  1.494423828E+03
1.841062836E+01  1.491233154E+03
1.842080749E+01  1.490299683E+03
1.843098662E+01  1.490314819E+03
1.844116575E+01  1.491144409E+03
1.845134488E+01  1.492433350E+03
1.846152401E+01  1.493701782E+03
1.847170314E+01  1.492274658E+03
1.848188227E+01  1.489687988E+03
1.849206140E+01  1.488204712E+03
1.850224053E+01  1.487268921E+03
1.851241967E+01  1.487302124E+03
1.852259880E+01  1.487380371E+03
1.853277793E+01  1.486327881E+03
1.854295706E+01  1.485136841E+03
1.855313619E+01  1.485853394E+03
1.856331532E+01  1.485190552E+03
1.857349445E+01  1.483033325E+03
1.858367358E+01  1.480880981E+03
1.859385271E+01  1.480625122E+03
1.860403184E+01  1.480143677E+03
1.861421097E+01  1.480554199E+03
1.862439010E+01  1.482537964E+03
1.863456923E+01  1.482862427E+03
1.864474836E+01  1.482028198E+03
1.865492749E+01  1.482075806E+03
1.866510662E+01  1.482412354E+03
1.867528576E+01  1.481280029E+03
1.868546489E+01  1.479600220E+03
1.869564402E+01  1.478456299E+03
1.870582315E+01  1.478299927E+03
1.871600228E+01  1.479621704E+03
1.872618141E+01  1.479977173E+03
1.873636054E+01  1.478381836E+03
1.874653967E+01  1.475338989E+03
1.875671880E+01  1.474650391E+03
1.876689793E+01  1.476279175E+03
1.877707706E+01  1.478417358E+03
1.878725619E+01  1.478533203E+03
1.879743532E+01  1.478153320E+03
1.880761445E+01  1.476973755E+03
1.881779358E+01  1.475905518E+03
1.882797271E+01  1.475311523E+03
1.883815185E+01  1.475637939E+03
1.884833098E+01  1.477605957E+03
1.885851011E+01  1.478698486E+03
1.886868924E+01  1.477546509E+03
1.887886837E+01  1.475579956E+03
1.888904750E+01  1.473391113E+03
1.889922663E+01  1.473442627E+03
1.890940576E+01  1.475369995E+03
1.891958489E+01  1.475843506E+03
1.892976402E+01  1.476057739E+03
1.893994315E+01  1.477210083E+03
1.895012228E+01  1.477533081E+03
1.896030141E+01  1.478494629E+03
1.897048054E+01  1.479524048E+03
1.898065967E+01  1.480151855E+03
1.899083880E+01  1.479378052E+03
1.900101793E+01  1.477135376E+03
1.901119707E+01  1.474588135E+03
1.902137620E+01  1.474211548E+03
1.903155533E+01  1.474736938E+03
1.904173446E+01  1.474067749E+03
1.905191359E+01  1.473046021E+03
1.906209272E+01  1.471397095E+03
1.907227185E+01  1.470592896E+03
1.908245098E+01  1.469205933E+03
1.909263011E+01  1.467571289E+03
1.910280924E+01  1.466246338E+03
1.911298837E+01  1.466042847E+03
1.912316750E+01  1.465755005E+03
1.913334663E+01  1.464605835E+03
1.914352576E+01  1.463648926E+03
1.915370489E+01  1.463217163E+03
1.916388402E+01  1.463830933E+03
1.917406316E+01  1.463068237E+03
1.918424229E+01  1.462764160E+03
1.919442142E+01  1.461815918E+03
1.920460055E+01  1.459245850E+03
1.921477968E+01  1.456548828E+03
1.922495881E+01  1.455945557E+03
1.923513794E+01  1.456023682E+03
1.924531707E+01  1.453799683E+03
1.925549620E+01  1.452744507E+03
1.926567533E+01  1.453619263E+03
1.927585446E+01  1.453935669E+03
1.928603359E+01  1.452251831E+03
1.929621272E+01  1.451394409E+03
1.930639185E+01  1.450686646E+03
1.931657098E+01  1.449485229E+03
1.932675011E+01  1.449262573E+03
1.933692925E+01  1.447727905E+03
1.934710838E+01  1.445531738E+03
1.935728751E+01  1.445646606E+03
1.936746664E+01  1.446452271E+03
1.937764577E+01  1.445873169E+03
1.938782490E+01  1.445424194E+03
1.939800403E+01  1.443758789E+03
1.940818316E+01  1.442990723E+03
1.941836229E+01  1.442972412E+03
1.942854142E+01  1.441781372E+03
1.943872055E+01  1.439614258E+03
1.944889968E+01  1.437811890E+03
1.945907881E+01  1.437994507E+03
1.946925794E+01  1.437819824E+03
1.947943707E+01  1.436487427E+03
1.948961620E+01  1.436786377E+03
1.949979534E+01  1.437506714E+03
1.950997447E+01  1.437358643E+03
1.952015360E+01  1.437740356E+03
1.953033273E+01  1.438393921E+03
1.954051186E+01  1.438764282E+03
1.955069099E+01  1.438683960E+03
1.956087012E+01  1.437392090E+03
1.957104925E+01  1.435560669E+03
1.958122838E+01  1.435151611E+03
1.959140751E+01  1.435339722E+03
1.960158664E+01  1.435591187E+03
1.961176577E+01  1.436107666E+03
1.962194490E+01  1.437687744E+03
1.963212403E+01  1.439235474E+03
1.964230316E+01  1.439258057E+03
1.965248229E+01  1.440218018E+03
1.966266143E+01  1.441060913E+03
1.967284056E+01  1.440325073E+03
1.968301969E+01  1.438428833E+03
1.969319882E+01  1.435576172E+03
1.970337795E+01  1.433609131E+03
1.971355708E+01  1.433443604E+03
1.972373621E+01  1.432522827E+03
1.973391534E+01  1.432679565E+03
1.974409447E+01  1.432499390E+03
1.975427360E+01  1.431692017E+03
1.976445273E+01  1.430783081E+03
1.977463186E+01  1.428682373E+03
1.978481099E+01  1.428447021E+03
1.979499012E+01  1.426938599E+03
1.980516925E+01  1.423238525E+03
1.981534838E+01  1.420865723E+03
1.982552752E+01  1.421173218E+03
1.983570665E+01  1.422636841E+03
1.984588578E+01  1.424727539E+03
1.985606491E+01  1.423960693E+03
1.986624404E+01  1.420820557E+03
1.987642317E+01  1.420337280E+03
1.988660230E+01  1.419817871E+03
1.989678143E+01  1.419150635E+03
1.990696056E+01  1.418199951E+03
1.991713969E+01  1.417827881E+03
1.992731882E+01  1.417999634E+03
1.993749795E+01  1.418391846E+03
1.994767708E+01  1.417662964E+03
1.995785621E+01  1.415974121E+03
1.996803534E+01  1.416216187E+03
1.997821447E+01  1.417318970E+03
1.998839360E+01  1.418126587E+03
1.999857274E+01  1.417988647E+03
2.000875187E+01  1.418111084E+03
2.001893100E+01  1.417042603E+03
2.002911013E+01  1.415563477E+03
2.003928926E+01  1.416123169E+03
2.004946839E+01  1.415123535E+03
2.005964752E+01  1.413984619E+03
2.006982665E+01  1.412848511E+03
2.008000578E+01  1.411692749E+03
2.009018491E+01  1.411029297E+03
2.010036404E+01  1.411217407E+03
2.011054317E+01  1.410876831E+03
2.012072230E+01  1.409727295E+03
2.013090143E+01  1.408830322E+03
2.014108056E+01  1.407649658E+03
2.015125969E+01  1.406508667E+03
2.016143883E+01  1.406126465E+03
2.017161796E+01  1.406651489E+03
2.018179709E+01  1.406537354E+03
2.019197622E+01  1.404996826E+03
2.020215535E+01  1.403242310E+03
2.021233448E+01  1.401644287E+03
2.022251361E+01  1.402296631E+03
2.023269274E+01  1.402050293E+03
2.024287187E+01  1.400636963E+03
2.025305100E+01  1.401093262E+03
2.026323013E+01  1.401656982E+03
2.027340926E+01  1.401757446E+03
2.028358839E+01  1.402267334E+03
2.029376752E+01  1.403461548E+03
2.030394665E+01  1.402750732E+03
2.031412578E+01  1.401477173E+03
2.032430492E+01  1.400049927E+03
2.033448405E+01  1.398055786E+03
2.034466318E+01  1.396899048E+03
2.035484231E+01  1.397796265E+03
2.036502144E+01  1.398738281E+03
2.037520057E+01  1.398813477E+03
2.038537970E+01  1.397884155E+03
2.039555883E+01  1.395632202E+03
2.040573796E+01  1.396178223E+03
2.041591709E+01  1.398213257E+03
2.042609622E+01  1.398894897E+03
2.043627535E+01  1.397346313E+03
2.044645448E+01  1.394779663E+03
2.045663361E+01  1.393290527E+03
2.046681274E+01  1.392952515E+03
2.047699187E+01  1.394406250E+03
2.048717101E+01  1.393959595E+03
2.049735014E+01  1.392643188E+03
2.050752927E+01  1.392968506E+03
2.051770840E+01  1.393990967E+03
2.052788753E+01  1.393766479E+03
2.053806666E+01  1.393428589E+03
2.054824579E+01  1.394471313E+03
2.055842492E+01  1.393128784E+03
2.056860405E+01  1.391671143E+03
2.057878318E+01  1.391482056E+03
2.058896231E+01  1.390239868E+03
2.059914144E+01  1.390281616E+03
2.060932057E+01  1.391605713E+03
2.061949970E+01  1.393036011E+03
2.062967883E+01  1.394715576E+03
2.063985796E+01  1.396768555E+03
2.065003710E+01  1.397253174E+03
2.066021623E+01  1.396784058E+03
2.067039536E+01  1.397320190E+03
2.068057449E+01  1.396654663E+03
2.069075362E+01  1.394940430E+03
2.070093275E+01  1.393242432E+03
2.071111188E+01  1.391682129E+03
2.072129101E+01  1.389780884E+03
2.073147014E+01  1.388454956E+03
2.074164927E+01  1.386903442E+03
2.075182840E+01  1.385851807E+03
2.076200753E+01  1.385304688E+03
2.077218666E+01  1.384727051E+03
2.078236579E+01  1.383565430E+03
2.079254492E+01  1.382051514E+03
2.080272405E+01  1.381035645E+03
2.081290319E+01  1.379738525E+03
2.082308232E+01  1.378591797E+03
2.083326145E+01  1.378314453E+03
2.084344058E+01  1.376848511E+03
2.085361971E+01  1.375307495E+03
2.086379884E+01  1.375067627E+03
2.087397797E+01  1.374459961E+03
2.088415710E+01  1.373097412E+03
2.089433623E+01  1.373177490E+03
2.090451536E+01  1.373300659E+03
2.091469449E+01  1.371687866E+03
2.092487362E+01  1.370798584E+03
2.093505275E+01  1.370864014E+03
2.094523188E+01  1.371099976E+03
2.095541101E+01  1.371010620E+03
2.096559014E+01  1.370171997E+03
2.097576927E+01  1.368196777E+03
2.098594841E+01  1.366681519E+03
2.099612754E+01  1.365357544E+03
2.100630667E+01  1.364863159E+03
2.101648580E+01  1.366725098E+03
2.102666493E+01  1.368006714E+03
2.103684406E+01  1.367766602E+03
2.104702319E+01  1.366197388E+03
2.105720232E+01  1.364904053E+03
2.106738145E+01  1.364192383E+03
2.107756058E+01  1.363982422E+03
2.108773971E+01  1.364588013E+03
2.109791884E+01  1.363707397E+03
2.110809797E+01  1.361993896E+03
2.111827710E+01  1.360944946E+03
2.112845623E+01  1.361477295E+03
2.113863536E+01  1.362763306E+03
2.114881450E+01  1.361876221E+03
2.115899363E+01  1.359328369E+03
2.116917276E+01  1.358371216E+03
2.117935189E+01  1.359612427E+03
2.118953102E+01  1.360034668E+03
2.119971015E+01  1.359796387E+03
2.120988928E+01  1.360365356E+03
2.122006841E+01  1.358916748E+03
2.123024754E+01  1.357186890E+03
2.124042667E+01  1.356140991E+03
2.125060580E+01  1.355538330E+03
2.126078493E+01  1.355459229E+03
2.127096406E+01  1.357194824E+03
2.128114319E+01  1.358114502E+03
2.129132232E+01  1.356340454E+03
2.130150145E+01  1.354538940E+03
2.131168059E+01  1.354493652E+03
2.132185972E+01  1.354947266E+03
2.133203885E+01  1.355681519E+03
2.134221798E+01  1.356382446E+03
2.135239711E+01  1.356145020E+03
2.136257624E+01  1.355396851E+03
2.137275537E+01  1.353707886E+03
2.138293450E+01  1.352759155E+03
2.139311363E+01  1.353380615E+03
2.140329276E+01  1.351694092E+03
2.141347189E+01  1.350679077E+03
2.142365102E+01  1.351960205E+03
2.143383015E+01  1.353526123E+03
2.144400928E+01  1.353829468E+03
2.145418841E+01  1.352782837E+03
2.146436754E+01  1.351698364E+03
2.147454668E+01  1.350271606E+03
2.148472581E+01  1.349341431E+03
2.149490494E+01  1.347741455E+03
2.150508407E+01  1.346151611E+03
2.151526320E+01  1.347237793E+03
2.152544233E+01  1.347135376E+03
2.153562146E+01  1.345159180E+03
2.154580059E+01  1.344078491E+03
2.155597972E+01  1.344868164E+03
2.156615885E+01  1.345782959E+03
2.157633798E+01  1.345232056E+03
2.158651711E+01  1.344864990E+03
2.159669624E+01  1.343622437E+03
2.160687537E+01  1.342493530E+03
2.161705450E+01  1.343327881E+03
2.162723363E+01  1.343711792E+03
2.163741277E+01  1.343465210E+03
2.164759190E+01  1.342833130E+03
2.165777103E+01  1.341624146E+03
2.166795016E+01  1.341105225E+03
2.167812929E+01  1.342878784E+03
2.168830842E+01  1.344011230E+03
2.169848755E+01  1.345167969E+03
2.170866668E+01  1.345554199E+03
2.171884581E+01  1.344231079E+03
2.172902494E+01  1.343374756E+03
2.173920407E+01  1.342449951E+03
2.174938320E+01  1.341294922E+03
2.175956233E+01  1.341025024E+03
2.176974146E+01  1.341994873E+03
2.177992059E+01  1.341065308E+03
2.179009972E+01  1.339139282E+03
2.180027886E+01  1.338276611E+03
2.181045799E+01  1.339587158E+03
2.182063712E+01  1.341571533E+03
2.183081625E+01  1.342681763E+03
2.184099538E+01  1.342025879E+03
2.185117451E+01  1.339158081E+03
2.186135364E+01  1.338048462E+03
2.187153277E+01  1.337645508E+03
2.188171190E+01  1.336760864E+03
2.189189103E+01  1.335748657E+03
2.190207016E+01  1.333533691E+03
2.191224929E+01  1.332721191E+03
2.192242842E+01  1.333339478E+03
2.193260755E+01  1.333365356E+03
2.194278668E+01  1.333402832E+03
2.195296581E+01  1.334035889E+03
2.196314495E+01  1.333340088E+03
2.197332408E+01  1.330385864E+03
2.198350321E+01  1.328490479E+03
2.199368234E+01  1.328369385E+03
2.200386147E+01  1.327755737E+03
2.201404060E+01  1.326773193E+03
2.202421973E+01  1.326545288E+03
2.203439886E+01  1.327690063E+03
2.204457799E+01  1.330281006E+03
2.205475712E+01  1.332079468E+03
2.206493625E+01  1.330426514E+03
2.207511538E+01  1.328026978E+03
2.208529451E+01  1.328262817E+03
2.209547364E+01  1.327799805E+03
2.210565277E+01  1.326347534E+03
2.211583190E+01  1.326739502E+03
2.212601103E+01  1.328332520E+03
2.213619017E+01  1.328002563E+03
2.214636930E+01  1.327358398E+03
2.215654843E+01  1.326208374E+03
2.216672756E+01  1.324351074E+03
2.217690669E+01  1.323282104E+03
2.218708582E+01  1.321957520E+03
2.219726495E+01  1.320482422E+03
2.220744408E+01  1.320213745E+03
2.221762321E+01  1.321243652E+03
2.222780234E+01  1.321534668E+03
2.223798147E+01  1.320721558E+03
2.224816060E+01  1.320156738E+03
2.225833973E+01  1.320401978E+03
2.226851886E+01  1.319042358E+03
2.227869799E+01  1.317516968E+03
2.228887712E+01  1.317831299E+03
2.229905626E+01  1.319786377E+03
2.230923539E+01  1.320545532E+03
2.231941452E+01  1.320151733E+03
2.232959365E+01  1.318909790E+03
2.233977278E+01  1.317848755E+03
2.234995191E+01  1.316949341E+03
2.236013104E+01  1.314560791E+03
2.237031017E+01  1.312636719E+03
2.238048930E+01  1.312437256E+03
2.239066843E+01  1.312156006E+03
2.240084756E+01  1.311335449E+03
2.241102669E+01  1.310628174E+03
2.242120582E+01  1.311071289E+03
2.243138495E+01  1.310766235E+03
2.244156408E+01  1.310239746E+03
2.245174321E+01  1.309857788E+03
2.246192235E+01  1.309809448E+03
2.247210148E+01  1.310551514E+03
2.248228061E+01  1.310414429E+03
2.249245974E+01  1.310361816E+03
2.250263887E+01  1.309388062E+03
2.251281800E+01  1.309341187E+03
2.252299713E+01  1.308789551E+03
2.253317626E+01  1.306362793E+03
2.254335539E+01  1.305883057E+03
2.255353452E+01  1.305962402E+03
2.256371365E+01  1.306357544E+03
2.257389278E+01  1.307157471E+03
2.258407191E+01  1.308057007E+03
2.259425104E+01  1.307785400E+03
2.260443017E+01  1.306857666E+03
2.261460930E+01  1.306404785E+03
2.262478844E+01  1.305641235E+03
2.263496757E+01  1.305631592E+03
2.264514670E+01  1.306179199E+03
2.265532583E+01  1.305958374E+03
2.266550496E+01  1.305836426E+03
2.267568409E+01  1.306085693E+03
2.268586322E+01  1.306640259E+03
2.269604235E+01  1.306560913E+03
2.270622148E+01  1.306454224E+03
2.271640061E+01  1.305692749E+03
2.272657974E+01  1.305223267E+03
2.273675887E+01  1.305114258E+03
2.274693800E+01  1.303974976E+03
2.275711713E+01  1.303991943E+03
2.276729626E+01  1.304327637E+03
2.277747539E+01  1.303518311E+03
2.278765453E+01  1.303247803E+03
2.279783366E+01  1.303001465E+03
2.280801279E+01  1.302426880E+03
2.281819192E+01  1.302899780E+03
2.282837105E+01  1.303010742E+03
2.283855018E+01  1.302134399E+03
2.284872931E+01  1.300457886E+03
2.285890844E+01  1.299205933E+03
2.286908757E+01  1.299001099E+03
2.287926670E+01  1.299510376E+03
2.288944583E+01  1.300057739E+03
2.289962496E+01  1.299553101E+03
2.290980409E+01  1.298822144E+03
2.291998322E+01  1.299114746E+03
2.293016235E+01  1.299271240E+03
2.294034148E+01  1.298752319E+03
2.295052062E+01  1.299605713E+03
2.296069975E+01  1.299980469E+03
2.297087888E+01  1.299333252E+03
2.298105801E+01  1.299529663E+03
2.299123714E+01  1.299228394E+03
2.300141627E+01  1.299082153E+03
2.301159540E+01  1.296996338E+03
2.302177453E+01  1.295752075E+03
2.303195366E+01  1.296349731E+03
2.304213279E+01  1.296817627E+03
2.305231192E+01  1.297663940E+03
2.306249105E+01  1.298273926E+03
2.307267018E+01  1.297830200E+03
2.308284931E+01  1.295889526E+03
2.309302844E+01  1.294684326E+03
2.310320757E+01  1.294434937E+03
2.311338670E+01  1.294163208E+03
2.312356584E+01  1.294961792E+03
2.313374497E+01  1.295131836E+03
2.314392410E+01  1.293975830E+03
2.315410323E+01  1.292667480E+03
2.316428236E+01  1.291903198E+03
2.317446149E+01  1.291183228E+03
2.318464062E+01  1.291068970E+03
2.319481975E+01  1.291818237E+03
2.320499888E+01  1.292020386E+03
2.321517801E+01  1.291332642E+03
2.322535714E+01  1.291211426E+03
2.323553627E+01  1.290913940E+03
2.324571540E+01  1.289679565E+03
2.325589453E+01  1.288140991E+03
2.326607366E+01  1.288117432E+03
2.327625279E+01  1.287676636E+03
2.328643193E+01  1.285791260E+03
2.329661106E+01  1.284002441E+03
2.330679019E+01  1.283955444E+03
2.331696932E+01  1.285559814E+03
2.332714845E+01  1.286463867E+03
2.333732758E+01  1.284923340E+03
2.334750671E+01  1.284639526E+03
2.335768584E+01  1.285374146E+03
2.336786497E+01  1.285985107E+03
2.337804410E+01  1.287661621E+03
2.338822323E+01  1.289923828E+03
2.339840236E+01  1.291619385E+03
2.340858149E+01  1.292488525E+03
2.341876062E+01  1.293547363E+03
2.342893975E+01  1.295846558E+03
2.343911888E+01  1.299566040E+03
2.344929802E+01  1.303001343E+03
2.345947715E+01  1.305835449E+03
2.346965628E+01  1.308508057E+03
2.347983541E+01  1.309001343E+03
2.349001454E+01  1.309140015E+03
2.350019367E+01  1.309804810E+03
2.351037280E+01  1.309669312E+03
2.352055193E+01  1.309001831E+03
2.353073106E+01  1.307965210E+03
2.354091019E+01  1.305258667E+03
2.355108932E+01  1.303612427E+03
2.356126845E+01  1.303380127E+03
2.357144758E+01  1.303136963E+03
2.358162671E+01  1.302905396E+03
2.359180584E+01  1.301832031E+03
2.360198497E+01  1.298735718E+03
2.361216411E+01  1.294559570E+03
2.362234324E+01  1.292566162E+03
2.363252237E+01  1.292656982E+03
2.364270150E+01  1.293617920E+03
2.365288063E+01  1.293953247E+03
2.366305976E+01  1.292187256E+03
2.367323889E+01  1.290506226E+03
2.368341802E+01  1.289244507E+03
2.369359715E+01  1.288348267E+03
2.370377628E+01  1.287789062E+03
2.371395541E+01  1.288098999E+03
2.372413454E+01  1.287337524E+03
2.373431367E+01  1.283956177E+03
2.374449280E+01  1.281790283E+03
2.375467193E+01  1.280372681E+03
2.376485106E+01  1.278376221E+03
2.377503020E+01  1.276671021E+03
2.378520933E+01  1.275049805E+03
2.379538846E+01  1.274576782E+03
2.380556759E+01  1.274542114E+03
2.381574672E+01  1.273532715E+03
2.382592585E+01  1.273029175E+03
2.383610498E+01  1.272973999E+03
2.384628411E+01  1.273663940E+03
2.385646324E+01  1.274581421E+03
2.386664237E+01  1.273855591E+03
2.387682150E+01  1.270848022E+03
2.388700063E+01  1.269073853E+03
2.389717976E+01  1.268281738E+03
2.390735889E+01  1.269603882E+03
2.391753802E+01  1.271387329E+03
2.392771715E+01  1.270481445E+03
2.393789629E+01  1.268968506E+03
2.394807542E+01  1.267619873E+03
2.395825455E+01  1.266457153E+03
2.396843368E+01  1.264807983E+03
2.397861281E+01  1.264147949E+03
2.398879194E+01  1.266114868E+03
2.399897107E+01  1.267596069E+03
2.400915020E+01  1.268089111E+03
2.401932933E+01  1.267489258E+03
2.402950846E+01  1.267000610E+03
2.403968759E+01  1.267787720E+03
2.404986672E+01  1.266635498E+03
2.406004585E+01  1.264757568E+03
2.407022498E+01  1.264749268E+03
2.408040411E+01  1.264273438E+03
2.409058324E+01  1.262006714E+03
2.410076237E+01  1.260956543E+03
2.411094151E+01  1.262419434E+03
2.412112064E+01  1.262891602E+03
2.413129977E+01  1.260844116E+03
2.414147890E+01  1.258914673E+03
2.415165803E+01  1.258423218E+03
2.416183716E+01  1.259265381E+03
2.417201629E+01  1.258595093E+03
2.418219542E+01  1.257989502E+03
2.419237455E+01  1.257508545E+03
2.420255368E+01  1.257349365E+03
2.421273281E+01  1.256847412E+03
2.422291194E+01  1.253899414E+03
2.423309107E+01  1.251645142E+03
2.424327020E+01  1.250565186E+03
2.425344933E+01  1.250190430E+03
2.426362846E+01  1.250599731E+03
2.427380760E+01  1.250085327E+03
2.428398673E+01  1.249028320E+03
2.429416586E+01  1.247187988E+03
2.430434499E+01  1.245748535E+03
2.431452412E+01  1.245965820E+03
2.432470325E+01  1.246299805E+03
2.433488238E+01  1.245689819E+03
2.434506151E+01  1.245173096E+03
2.435524064E+01  1.244099731E+03
2.436541977E+01  1.242350586E+03
2.437559890E+01  1.241955200E+03
2.438577803E+01  1.241755005E+03
2.439595716E+01  1.240519165E+03
2.440613629E+01  1.239175903E+03
2.441631542E+01  1.238497314E+03
2.442649455E+01  1.237658569E+03
2.443667369E+01  1.236274658E+03
2.444685282E+01  1.234035767E+03
2.445703195E+01  1.231904053E+03
2.446721108E+01  1.231491821E+03
2.447739021E+01  1.231415039E+03
2.448756934E+01  1.232175781E+03
2.449774847E+01  1.233160278E+03
2.450792760E+01  1.232997559E+03
2.451810673E+01  1.231793457E+03
2.452828586E+01  1.230410645E+03
2.453846499E+01  1.229840942E+03
2.454864412E+01  1.229852905E+03
2.455882325E+01  1.229241821E+03
2.456900238E+01  1.227925049E+03
2.457918151E+01  1.227216064E+03
2.458936064E+01  1.227130615E+03
2.459953978E+01  1.225546753E+03
2.460971891E+01  1.223093140E+03
2.461989804E+01  1.223234741E+03
2.463007717E+01  1.223497681E+03
2.464025630E+01  1.223237061E+03
2.465043543E+01  1.222100708E+03
2.466061456E+01  1.221173218E+03
2.467079369E+01  1.221353882E+03
2.468097282E+01  1.220663696E+03
2.469115195E+01  1.219805664E+03
2.470133108E+01  1.219769165E+03
2.471151021E+01  1.219479126E+03
2.472168934E+01  1.218810059E+03
2.473186847E+01  1.217374756E+03
2.474204760E+01  1.216677612E+03
2.475222673E+01  1.216454834E+03
2.476240587E+01  1.215656738E+03
2.477258500E+01  1.216232544E+03
2.478276413E+01  1.216269165E+03
2.479294326E+01  1.215757568E+03
2.480312239E+01  1.215189941E+03
2.481330152E+01  1.214846924E+03
2.482348065E+01  1.214185669E+03
2.483365978E+01  1.213005981E+03
2.484383891E+01  1.212429565E+03
2.485401804E+01  1.211544434E+03
2.486419717E+01  1.209236084E+03
2.487437630E+01  1.207696411E+03
2.488455543E+01  1.207673462E+03
2.489473456E+01  1.207695312E+03
2.490491369E+01  1.208621338E+03
2.491509282E+01  1.208932739E+03
2.492527196E+01  1.207785645E+03
2.493545109E+01  1.206939331E+03
2.494563022E+01  1.207410767E+03
2.495580935E+01  1.206841919E+03
2.496598848E+01  1.205970581E+03
2.497616761E+01  1.205591309E+03
2.498634674E+01  1.203496582E+03
2.499652587E+01  1.202515991E+03
2.500670500E+01  1.202510010E+03
2.501688413E+01  1.202957642E+03
2.502706326E+01  1.202724854E+03
2.503724239E+01  1.201215942E+03
2.504742152E+01  1.199702759E+03
2.505760065E+01  1.199361694E+03
2.506777978E+01  1.200512817E+03
2.507795891E+01  1.200964600E+03
2.508813804E+01  1.201031860E+03
2.509831718E+01  1.200463989E+03
2.510849631E+01  1.199775146E+03
2.511867544E+01  1.198913696E+03
2.512885457E+01  1.198212524E+03
2.513903370E+01  1.197940186E+03
2.514921283E+01  1.198048096E+03
2.515939196E+01  1.196786865E+03
2.516957109E+01  1.195756470E+03
2.517975022E+01  1.196375000E+03
2.518992935E+01  1.196972046E+03
2.520010848E+01  1.198175781E+03
2.521028761E+01  1.197931519E+03
2.522046674E+01  1.195631592E+03
2.523064587E+01  1.194042358E+03
2.524082500E+01  1.193163818E+03
2.525100413E+01  1.192921387E+03
2.526118327E+01  1.193908936E+03
2.527136240E+01  1.194205811E+03
2.528154153E+01  1.192467773E+03
2.529172066E+01  1.190459961E+03
2.530189979E+01  1.188909668E+03
2.531207892E+01  1.187309692E+03
2.532225805E+01  1.186515503E+03
2.533243718E+01  1.186750000E+03
2.534261631E+01  1.186461426E+03
2.535279544E+01  1.186616821E+03
2.536297457E+01  1.187275146E+03
2.537315370E+01  1.186857788E+03
2.538333283E+01  1.185736694E+03
2.539351196E+01  1.184527588E+03
2.540369109E+01  1.183384033E+03
2.541387022E+01  1.182726074E+03
2.542404936E+01  1.182785034E+03
2.543422849E+01  1.182361572E+03
2.544440762E+01  1.182467896E+03
2.545458675E+01  1.183396362E+03
2.546476588E+01  1.183109985E+03
2.547494501E+01  1.182161865E+03
2.548512414E+01  1.180701538E+03
2.549530327E+01  1.179468994E+03
2.550548240E+01  1.179246216E+03
2.551566153E+01  1.179059570E+03
2.552584066E+01  1.180415039E+03
2.553601979E+01  1.181349854E+03
2.554619892E+01  1.179149536E+03
2.555637805E+01  1.177453491E+03
2.556655718E+01  1.176046753E+03
2.557673631E+01  1.174681763E+03
2.558691545E+01  1.175307739E+03
2.559709458E+01  1.175612793E+03
2.560727371E+01  1.174201904E+03
2.561745284E+01  1.173610840E+03
2.562763197E+01  1.172983154E+03
2.563781110E+01  1.173230469E+03
2.564799023E+01  1.174622437E+03
2.565816936E+01  1.175128784E+03
2.566834849E+01  1.174199585E+03
2.567852762E+01  1.172314331E+03
2.568870675E+01  1.170886108E+03
2.569888588E+01  1.170142578E+03
2.570906501E+01  1.169879517E+03
2.571924414E+01  1.169840088E+03
2.572942327E+01  1.168898926E+03
2.573960240E+01  1.167595703E+03
2.574978154E+01  1.167593262E+03
2.575996067E+01  1.167698120E+03
2.577013980E+01  1.167835571E+03
2.578031893E+01  1.167584717E+03
2.579049806E+01  1.166905884E+03
2.580067719E+01  1.166989624E+03
2.581085632E+01  1.166267456E+03
2.582103545E+01  1.165120239E+03
2.583121458E+01  1.165352173E+03
2.584139371E+01  1.166342163E+03
2.585157284E+01  1.167000122E+03
2.586175197E+01  1.166056274E+03
2.587193110E+01  1.164315674E+03
2.588211023E+01  1.163471802E+03
2.589228936E+01  1.162658936E+03
2.590246849E+01  1.161492920E+03
2.591264763E+01  1.160883057E+03
2.592282676E+01  1.161137329E+03
2.593300589E+01  1.160695190E+03
2.594318502E+01  1.160145142E+03
2.595336415E+01  1.160278076E+03
2.596354328E+01  1.159450317E+03
2.597372241E+01  1.158046021E+03
2.598390154E+01  1.157233154E+03
2.599408067E+01  1.156856201E+03
2.600425980E+01  1.156604248E+03
2.601443893E+01  1.156252441E+03
2.602461806E+01  1.155465454E+03
2.603479719E+01  1.154988525E+03
2.604497632E+01  1.154418579E+03
2.605515545E+01  1.154477539E+03
2.606533458E+01  1.154166138E+03
2.607551372E+01  1.153614258E+03
2.608569285E+01  1.154703247E+03
2.609587198E+01  1.155133545E+03
2.610605111E+01  1.153545532E+03
2.611623024E+01  1.152817261E+03
2.612640937E+01  1.152695801E+03
2.613658850E+01  1.152859985E+03
2.614676763E+01  1.153693604E+03
2.615694676E+01  1.154415283E+03
2.616712589E+01  1.154351074E+03
2.617730502E+01  1.152863159E+03
2.618748415E+01  1.151003418E+03
2.619766328E+01  1.149072754E+03
2.620784241E+01  1.147585327E+03
2.621802154E+01  1.147468140E+03
2.622820067E+01  1.148873413E+03
2.623837980E+01  1.149890137E+03
2.624855894E+01  1.149301147E+03
2.625873807E+01  1.148448975E+03
2.626891720E+01  1.147429810E+03
2.627909633E+01  1.146262817E+03
2.628927546E+01  1.145152344E+03
2.629945459E+01  1.144509155E+03
2.630963372E+01  1.143944824E+03
2.631981285E+01  1.144291870E+03
2.632999198E+01  1.145445557E+03
2.634017111E+01  1.146031860E+03
2.635035024E+01  1.145610596E+03
2.636052937E+01  1.144764038E+03
2.637070850E+01  1.144671265E+03
2.638088763E+01  1.144537476E+03
2.639106676E+01  1.143854492E+03
2.640124589E+01  1.143377441E+03
2.641142503E+01  1.143074707E+03
2.642160416E+01  1.142916626E+03
2.643178329E+01  1.142301270E+03
2.644196242E+01  1.141611206E+03
2.645214155E+01  1.142184570E+03
2.646232068E+01  1.142463135E+03
2.647249981E+01  1.141018555E+03
2.648267894E+01  1.139115601E+03
2.649285807E+01  1.138759399E+03
2.650303720E+01  1.139439087E+03
2.651321633E+01  1.139295410E+03
2.652339546E+01  1.140016724E+03
2.653357459E+01  1.140846069E+03
2.654375372E+01  1.140102295E+03
2.655393285E+01  1.139542114E+03
2.656411198E+01  1.139545532E+03
2.657429112E+01  1.138492676E+03
2.658447025E+01  1.137588257E+03
2.659464938E+01  1.137521606E+03
2.660482851E+01  1.137088623E+03
2.661500764E+01  1.135737915E+03
2.662518677E+01  1.134178467E+03
2.663536590E+01  1.134630005E+03
2.664554503E+01  1.135810181E+03
2.665572416E+01  1.135480469E+03
2.666590329E+01  1.134953979E+03
2.667608242E+01  1.134760132E+03
2.668626155E+01  1.134097412E+03
2.669644068E+01  1.133894531E+03
2.670661981E+01  1.133553467E+03
2.671679894E+01  1.133794800E+03
2.672697807E+01  1.134153320E+03
2.673715721E+01  1.133310425E+03
2.674733634E+01  1.131604980E+03
2.675751547E+01  1.131335205E+03
2.676769460E+01  1.131653442E+03
2.677787373E+01  1.131299805E+03
2.678805286E+01  1.130422485E+03
2.679823199E+01  1.129330566E+03
2.680841112E+01  1.129598877E+03
2.681859025E+01  1.129921021E+03
2.682876938E+01  1.129637817E+03
2.683894851E+01  1.129644165E+03
2.684912764E+01  1.129535034E+03
2.685930677E+01  1.129319336E+03
2.686948590E+01  1.130063110E+03
2.687966503E+01  1.131207031E+03
2.688984416E+01  1.131330688E+03
2.690002330E+01  1.132479858E+03
2.691020243E+01  1.133296753E+03
2.692038156E+01  1.132654053E+03
2.693056069E+01  1.133066528E+03
2.694073982E+01  1.132750732E+03
2.695091895E+01  1.132492798E+03
2.696109808E+01  1.133001343E+03
2.697127721E+01  1.133411255E+03
2.698145634E+01  1.134639038E+03
2.699163547E+01  1.136610474E+03
2.700181460E+01  1.136965332E+03
2.701199373E+01  1.135718018E+03
2.702217286E+01  1.135659180E+03
2.703235199E+01  1.136214966E+03
2.704253112E+01  1.136232910E+03
2.705271025E+01  1.136786621E+03
2.706288939E+01  1.136715332E+03
2.707306852E+01  1.136649414E+03
2.708324765E+01  1.137283936E+03
2.709342678E+01  1.138170410E+03
2.710360591E+01  1.140063965E+03
2.711378504E+01  1.140802368E+03
2.712396417E+01  1.140488647E+03
2.713414330E+01  1.140498657E+03
2.714432243E+01  1.141070557E+03
2.715450156E+01  1.141466553E+03
2.716468069E+01  1.142013184E+03
2.717485982E+01  1.142635010E+03
2.718503895E+01  1.143909180E+03
2.719521808E+01  1.144707520E+03
2.720539721E+01  1.144866333E+03
2.721557634E+01  1.145992676E+03
2.722575547E+01  1.146564209E+03
2.723593461E+01  1.146444824E+03
2.724611374E+01  1.146310791E+03
2.725629287E+01  1.146395386E+03
2.726647200E+01  1.146565918E+03
2.727665113E+01  1.146423828E+03
2.728683026E+01  1.145615112E+03
2.729700939E+01  1.146057861E+03
2.730718852E+01  1.146769409E+03
2.731736765E+01  1.146720459E+03
2.732754678E+01  1.146846924E+03
2.733772591E+01  1.146989014E+03
2.734790504E+01  1.145860962E+03
2.735808417E+01  1.145633789E+03
2.736826330E+01  1.146853271E+03
2.737844243E+01  1.146561890E+03
2.738862156E+01  1.144731201E+03
2.739880070E+01  1.143729248E+03
2.740897983E+01  1.142823486E+03
2.741915896E+01  1.142051636E+03
2.742933809E+01  1.140399414E+03
2.743951722E+01  1.138750854E+03
2.744969635E+01  1.137916626E+03
2.745987548E+01  1.136809082E+03
2.747005461E+01  1.135673706E+03
2.748023374E+01  1.134000122E+03
2.749041287E+01  1.132250488E+03
2.750059200E+01  1.131091797E+03
2.751077113E+01  1.129542847E+03
2.752095026E+01  1.127526367E+03
2.753112939E+01  1.127277710E+03
2.754130852E+01  1.126976440E+03
2.755148765E+01  1.125569092E+03
2.756166679E+01  1.123869751E+03
2.757184592E+01  1.121698486E+03
2.758202505E+01  1.119729614E+03
2.759220418E+01  1.118811523E+03
2.760238331E+01  1.118420898E+03
2.761256244E+01  1.117865356E+03
2.762274157E+01  1.117843506E+03
2.763292070E+01  1.117061768E+03
2.764309983E+01  1.115418579E+03
2.765327896E+01  1.113814209E+03
2.766345809E+01  1.111784302E+03
2.767363722E+01  1.110211548E+03
2.768381635E+01  1.109083374E+03
2.769399548E+01  1.108204712E+03
2.770417461E+01  1.108417480E+03
2.771435374E+01  1.106623657E+03
2.772453288E+01  1.104691895E+03
2.773471201E+01  1.104128784E+03
2.774489114E+01  1.103771973E+03
2.775507027E+01  1.103854248E+03
2.776524940E+01  1.102982056E+03
2.777542853E+01  1.102456787E+03
2.778560766E+01  1.103561401E+03
2.779578679E+01  1.103606323E+03
2.780596592E+01  1.102872192E+03
2.781614505E+01  1.102097534E+03
2.782632418E+01  1.101723389E+03
2.783650331E+01  1.100982666E+03
2.784668244E+01  1.100047852E+03
2.785686157E+01  1.099838623E+03
2.786704070E+01  1.099575562E+03
2.787721983E+01  1.099247192E+03
2.788739897E+01  1.099108765E+03
2.789757810E+01  1.100287476E+03
2.790775723E+01  1.101245605E+03
2.791793636E+01  1.101068848E+03
2.792811549E+01  1.099798950E+03
2.793829462E+01  1.098376221E+03
2.794847375E+01  1.097911865E+03
2.795865288E+01  1.097151001E+03
2.796883201E+01  1.095695190E+03
2.797901114E+01  1.094506958E+03
2.798919027E+01  1.094024414E+03
2.799936940E+01  1.093739502E+03
2.800954853E+01  1.093180176E+03
2.801972766E+01  1.093677246E+03
2.802990679E+01  1.093227661E+03
2.804008592E+01  1.092166382E+03
2.805026506E+01  1.092681885E+03
2.806044419E+01  1.093080200E+03
2.807062332E+01  1.093261108E+03
2.808080245E+01  1.093836670E+03
2.809098158E+01  1.093119995E+03
2.810116071E+01  1.092422485E+03
2.811133984E+01  1.091002808E+03
2.812151897E+01  1.089591431E+03
2.813169810E+01  1.088086182E+03
2.814187723E+01  1.085680420E+03
2.815205636E+01  1.086280762E+03
2.816223549E+01  1.087254883E+03
2.817241462E+01  1.087018188E+03
2.818259375E+01  1.087797852E+03
2.819277288E+01  1.088768555E+03
2.820295201E+01  1.088324463E+03
2.821313114E+01  1.087253662E+03
2.822331028E+01  1.086021973E+03
2.823348941E+01  1.086272217E+03
2.824366854E+01  1.087311401E+03
2.825384767E+01  1.087391602E+03
2.826402680E+01  1.087119629E+03
2.827420593E+01  1.087103516E+03
2.828438506E+01  1.085713989E+03
2.829456419E+01  1.083244873E+03
2.830474332E+01  1.082962280E+03
2.831492245E+01  1.083767212E+03
2.832510158E+01  1.083234131E+03
2.833528071E+01  1.081995239E+03
2.834545984E+01  1.081016357E+03
2.835563897E+01  1.080645508E+03
2.836581810E+01  1.081359741E+03
2.837599723E+01  1.083430664E+03
2.838617637E+01  1.083243530E+03
2.839635550E+01  1.081762207E+03
2.840653463E+01  1.081804810E+03
2.841671376E+01  1.081186646E+03
2.842689289E+01  1.079858154E+03
2.843707202E+01  1.080209717E+03
2.844725115E+01  1.081283325E+03
2.845743028E+01  1.080468262E+03
2.846760941E+01  1.080155151E+03
2.847778854E+01  1.079544556E+03
2.848796767E+01  1.078788208E+03
2.849814680E+01  1.078715698E+03
2.850832593E+01  1.077418701E+03
2.851850506E+01  1.077069702E+03
2.852868419E+01  1.076766602E+03
2.853886332E+01  1.075702393E+03
2.854904246E+01  1.076446167E+03
2.855922159E+01  1.078561768E+03
2.856940072E+01  1.079145996E+03
2.857957985E+01  1.077641846E+03
2.858975898E+01  1.076796753E+03
2.859993811E+01  1.077143677E+03
2.861011724E+01  1.076587891E+03
2.862029637E+01  1.075867432E+03
2.863047550E+01  1.075140991E+03
2.864065463E+01  1.074450928E+03
2.865083376E+01  1.073383911E+03
2.866101289E+01  1.073185791E+03
2.867119202E+01  1.072805664E+03
2.868137115E+01  1.070908813E+03
2.869155028E+01  1.070737915E+03
2.870172941E+01  1.072160278E+03
2.871190855E+01  1.073087036E+03
2.872208768E+01  1.072955078E+03
2.873226681E+01  1.071083374E+03
2.874244594E+01  1.069837402E+03
2.875262507E+01  1.069431763E+03
2.876280420E+01  1.070112305E+03
2.877298333E+01  1.072168213E+03
2.878316246E+01  1.072077393E+03
2.879334159E+01  1.071313721E+03
2.880352072E+01  1.071129639E+03
2.881369985E+01  1.069919067E+03
2.882387898E+01  1.068599365E+03
2.883405811E+01  1.067175049E+03
2.884423724E+01  1.066576172E+03
2.885441637E+01  1.067644409E+03
2.886459550E+01  1.066864258E+03
2.887477464E+01  1.063553223E+03
2.888495377E+01  1.061751221E+03
2.889513290E+01  1.060737305E+03
2.890531203E+01  1.060247925E+03
2.891549116E+01  1.060046265E+03
2.892567029E+01  1.058964966E+03
2.893584942E+01  1.057607300E+03
2.894602855E+01  1.055954590E+03
2.895620768E+01  1.054661987E+03
2.896638681E+01  1.054275757E+03
2.897656594E+01  1.052224365E+03
2.898674507E+01  1.048355103E+03
2.899692420E+01  1.044256714E+03
2.900710333E+01  1.040651489E+03
2.901728246E+01  1.037928101E+03
2.902746159E+01  1.034158813E+03
2.903764073E+01  1.030993652E+03
2.904781986E+01  1.028635010E+03
2.905799899E+01  1.024972168E+03
2.906817812E+01  1.021409607E+03
2.907835725E+01  1.018310913E+03
2.908853638E+01  1.015580444E+03
2.909871551E+01  1.012261841E+03
2.910889464E+01  1.009291321E+03
2.911907377E+01  1.006635010E+03
2.912925290E+01  1.003658203E+03
2.913943203E+01  1.001249817E+03
2.914961116E+01  9.993997192E+02
2.915979029E+01  9.956774902E+02
2.916996942E+01  9.912508545E+02
2.918014855E+01  9.884366455E+02
2.919032768E+01  9.849932861E+02
2.920050681E+01  9.813680420E+02
2.921068595E+01  9.775053101E+02
2.922086508E+01  9.742308350E+02
2.923104421E+01  9.715393066E+02
2.924122334E+01  9.677856445E+02
2.925140247E+01  9.630608521E+02
2.926158160E+01  9.591006470E+02
2.927176073E+01  9.556048584E+02
2.928193986E+01  9.506564941E+02
2.929211899E+01  9.459487915E+02
2.930229812E+01  9.421357422E+02
2.931247725E+01  9.378622437E+02
2.932265638E+01  9.346418457E+02
2.933283551E+01  9.317274780E+02
2.934301464E+01  9.277135620E+02
2.935319377E+01  9.228305054E+02
2.936337290E+01  9.182792969E+02
2.937355204E+01  9.155407715E+02
2.938373117E+01  9.113695068E+02
2.939391030E+01  9.060425415E+02
2.940408943E+01  9.023039551E+02
2.941426856E+01  8.985091553E+02
2.942444769E+01  8.953165283E+02
2.943462682E+01  8.926904907E+02
2.944480595E+01  8.889093018E+02
2.945498508E+01  8.843410645E+02
2.946516421E+01  8.802684937E+02
2.947534334E+01  8.774808350E+02
2.948552247E+01  8.749702759E+02
2.949570160E+01  8.700649414E+02
2.950588073E+01  8.649855347E+02
2.951605986E+01  8.605109863E+02
2.952623899E+01  8.562210083E+02
2.953641813E+01  8.532835083E+02
2.954659726E+01  8.495930786E+02
2.955677639E+01  8.455597534E+02
2.956695552E+01  8.415289307E+02
2.957713465E+01  8.374658203E+02
2.958731378E+01  8.328854370E+02
2.959749291E+01  8.287882080E+02
2.960767204E+01  8.256279907E+02
2.961785117E+01  8.223190918E+02
2.962803030E+01  8.185440674E+02
2.963820943E+01  8.147039185E+02
2.964838856E+01  8.104339600E+02
2.965856769E+01  8.067726440E+02
2.966874682E+01  8.040276489E+02
2.967892595E+01  8.005881348E+02
2.968910508E+01  7.974291992E+02
2.969928422E+01  7.948071899E+02
2.970946335E+01  7.920012817E+02
2.971964248E+01  7.882993774E+02
2.972982161E+01  7.854249268E+02
2.974000074E+01  7.829072876E+02
2.975017987E+01  7.797913208E+02
2.976035900E+01  7.768011475E+02
2.977053813E+01  7.736732788E+02
2.978071726E+01  7.709097290E+02
2.979089639E+01  7.680745239E+02
2.980107552E+01  7.647396851E+02
2.981125465E+01  7.618884277E+02
2.982143378E+01  7.594721069E+02
2.983161291E+01  7.569854126E+02
2.984179204E+01  7.550338135E+02
2.985197117E+01  7.535490723E+02
2.986215031E+01  7.502235107E+02
2.987232944E+01  7.468338013E+02
2.988250857E+01  7.453717041E+02
2.989268770E+01  7.427105713E+02
2.990286683E+01  7.392937012E+02
2.991304596E+01  7.369723511E+02
2.992322509E+01  7.354573975E+02
2.993340422E+01  7.338569946E+02
2.994358335E+01  7.318705444E+02
2.995376248E+01  7.292978516E+02
2.996394161E+01  7.269700317E+02
2.997412074E+01  7.240831909E+02
2.998429987E+01  7.207607422E+02
2.999447900E+01  7.182193604E+02
3.000465813E+01  7.165253906E+02
3.001483726E+01  7.147539673E+02
3.002501640E+01  7.121948242E+02
3.003519553E+01  7.099793701E+02
3.004537466E+01  7.073802490E+02
3.005555379E+01  7.052062988E+02
3.006573292E+01  7.042876587E+02
3.007591205E+01  7.044436646E+02
3.008609118E+01  7.046024170E+02
3.009627031E+01  7.037625122E+02
3.010644944E+01  7.030863037E+02
3.011662857E+01  7.029981079E+02
3.012680770E+01  7.029093628E+02
3.013698683E+01  7.032018433E+02
3.014716596E+01  7.026455078E+02
3.015734509E+01  7.012447510E+02
3.016752422E+01  7.006278687E+02
3.017770335E+01  7.009536743E+02
3.018788249E+01  7.007160645E+02
3.019806162E+01  6.995651245E+02
3.020824075E+01  6.983945312E+02
3.021841988E+01  6.972662964E+02
3.022859901E+01  6.964722900E+02
3.023877814E+01  6.965809326E+02
3.024895727E+01  6.967597046E+02
3.025913640E+01  6.969528809E+02
3.026931553E+01  6.965195312E+02
3.027949466E+01  6.958132324E+02
3.028967379E+01  6.953942261E+02
3.029985292E+01  6.945538330E+02
3.031003205E+01  6.933076782E+02
3.032021118E+01  6.930116577E+02
3.033039031E+01  6.924921875E+02
3.034056944E+01  6.914739990E+02
3.035074857E+01  6.912125244E+02
3.036092771E+01  6.914565430E+02
3.037110684E+01  6.919134521E+02
3.038128597E+01  6.917186279E+02
3.039146510E+01  6.919408569E+02
3.040164423E+01  6.927145996E+02
3.041182336E+01  6.915964966E+02
3.042200249E+01  6.911156616E+02
3.043218162E+01  6.920071411E+02
3.044236075E+01  6.908715210E+02
3.045253988E+01  6.896560059E+02
3.046271901E+01  6.895495605E+02
3.047289814E+01  6.894824829E+02
3.048307727E+01  6.895327148E+02
3.049325640E+01  6.893054199E+02
3.050343553E+01  6.885138550E+02
3.051361466E+01  6.879379883E+02
3.052379380E+01  6.877808838E+02
3.053397293E+01  6.874288940E+02
3.054415206E+01  6.867578125E+02
3.055433119E+01  6.864873047E+02
3.056451032E+01  6.870427246E+02
3.057468945E+01  6.866614990E+02
3.058486858E+01  6.853170776E+02
3.059504771E+01  6.844776611E+02
3.060522684E+01  6.839587402E+02
3.061540597E+01  6.842100830E+02
3.062558510E+01  6.840157471E+02
3.063576423E+01  6.831896362E+02
3.064594336E+01  6.826294556E+02
3.065612249E+01  6.812475586E+02
3.066630162E+01  6.800949707E+02
3.067648075E+01  6.805899048E+02
3.068665989E+01  6.807196655E+02
3.069683902E+01  6.802345581E+02
3.070701815E+01  6.794593506E+02
3.071719728E+01  6.790795898E+02
3.072737641E+01  6.788004150E+02
3.073755554E+01  6.777633667E+02
3.074773467E+01  6.768171387E+02
3.075791380E+01  6.757989502E+02
3.076809293E+01  6.761913452E+02
3.077827206E+01  6.759494629E+02
3.078845119E+01  6.742625732E+02
3.079863032E+01  6.726182251E+02
3.080880945E+01  6.732457275E+02
3.081898858E+01  6.730232544E+02
3.082916771E+01  6.722169800E+02
3.083934684E+01  6.729017944E+02
3.084952598E+01  6.763836060E+02
3.085970511E+01  6.846651611E+02
3.086988424E+01  6.894915161E+02
3.088006337E+01  6.908637695E+02
3.089024250E+01  6.919046021E+02
3.090042163E+01  6.923647461E+02
3.091060076E+01  6.935612183E+02
3.092077989E+01  6.942100220E+02
3.093095902E+01  6.936212158E+02
3.094113815E+01  6.937845459E+02
3.095131728E+01  6.949890137E+02
3.096149641E+01  6.968575439E+02
3.097167554E+01  6.988500366E+02
3.098185467E+01  7.005091553E+02
3.099203380E+01  7.017560425E+02
3.100221293E+01  7.027135620E+02
3.101239207E+01  7.035339966E+02
3.102257120E+01  7.038330078E+02
3.103275033E+01  7.032424316E+02
3.104292946E+01  7.028161621E+02
3.105310859E+01  7.017775879E+02
3.106328772E+01  7.009020386E+02
3.107346685E+01  7.015840454E+02
3.108364598E+01  7.025271606E+02
3.109382511E+01  7.026969604E+02
3.110400424E+01  7.020561523E+02
3.111418337E+01  7.011735840E+02
3.112436250E+01  7.010730591E+02
3.113454163E+01  7.012910156E+02
3.114472076E+01  7.014426880E+02
3.115489989E+01  7.020636597E+02
3.116507902E+01  7.019168091E+02
3.117525816E+01  7.003640137E+02
3.118543729E+01  6.991655273E+02
3.119561642E+01  6.982701416E+02
3.120579555E+01  6.975260620E+02
3.121597468E+01  6.992714844E+02
3.122615381E+01  7.005999756E+02
3.123633294E+01  7.001507568E+02
3.124651207E+01  7.003370972E+02
3.125669120E+01  7.006053467E+02
3.126687033E+01  7.010769653E+02
3.127704946E+01  7.010728760E+02
3.128722859E+01  7.000195312E+02
3.129740772E+01  6.990841064E+02
3.130758685E+01  6.990566406E+02
3.131776598E+01  7.000270996E+02
3.132794511E+01  7.004334717E+02
3.133812424E+01  7.003249512E+02
3.134830338E+01  6.996796265E+02
3.135848251E+01  7.001304932E+02
3.136866164E+01  7.014522095E+02
3.137884077E+01  6.999757690E+02
3.138901990E+01  6.982108154E+02
3.139919903E+01  6.979368286E+02
3.140937816E+01  6.978464966E+02
3.141955729E+01  6.982274780E+02
3.142973642E+01  6.979387817E+02
3.143991555E+01  6.968327637E+02
3.145009468E+01  6.955594482E+02
3.146027381E+01  6.946857300E+02
3.147045294E+01  6.950611572E+02
3.148063207E+01  6.955567627E+02
3.149081120E+01  6.958143921E+02
3.150099033E+01  6.958505859E+02
3.151116947E+01  6.954898682E+02
3.152134860E+01  6.948923950E+02
3.153152773E+01  6.940453491E+02
3.154170686E+01  6.935221558E+02
3.155188599E+01  6.945261841E+02
3.156206512E+01  6.945482788E+02
3.157224425E+01  6.944864502E+02
3.158242338E+01  6.951298828E+02
3.159260251E+01  6.951208496E+02
3.160278164E+01  6.945577393E+02
3.161296077E+01  6.938106079E+02
3.162313990E+01  6.938767090E+02
3.163331903E+01  6.932946777E+02
3.164349816E+01  6.916932373E+02
3.165367729E+01  6.912550049E+02
3.166385642E+01  6.920266724E+02
3.167403556E+01  6.930227661E+02
3.168421469E+01  6.922097778E+02
3.169439382E+01  6.920423584E+02
3.170457295E+01  6.922380981E+02
3.171475208E+01  6.909339600E+02
3.172493121E+01  6.903330078E+02
3.173511034E+01  6.893107910E+02
3.174528947E+01  6.878054199E+02
3.175546860E+01  6.881051636E+02
3.176564773E+01  6.894173584E+02
3.177582686E+01  6.895114136E+02
3.178600599E+01  6.898134766E+02
3.179618512E+01  6.899675903E+02
3.180636425E+01  6.889092407E+02
3.181654338E+01  6.889414062E+02
3.182672251E+01  6.901716309E+02
3.183690165E+01  6.902622070E+02
3.184708078E+01  6.881307373E+02
3.185725991E+01  6.859801636E+02
3.186743904E+01  6.857406616E+02
3.187761817E+01  6.856197510E+02
3.188779730E+01  6.851560059E+02
3.189797643E+01  6.857535400E+02
3.190815556E+01  6.864620361E+02
3.191833469E+01  6.862214966E+02
3.192851382E+01  6.849464722E+02
3.193869295E+01  6.827062378E+02
3.194887208E+01  6.809549561E+02
3.195905121E+01  6.806034546E+02
3.196923034E+01  6.797322388E+02
3.197940947E+01  6.779146729E+02
3.198958860E+01  6.775266724E+02
3.199976774E+01  6.779071655E+02
3.200994687E+01  6.770579834E+02
3.202012600E+01  6.757248535E+02
3.203030513E+01  6.761798096E+02
3.204048426E+01  6.769404907E+02
3.205066339E+01  6.755628662E+02
3.206084252E+01  6.733694458E+02
3.207102165E+01  6.733047485E+02
3.208120078E+01  6.738167114E+02
3.209137991E+01  6.723193970E+02
3.210155904E+01  6.699027100E+02
3.211173817E+01  6.685238647E+02
3.212191730E+01  6.682200317E+02
3.213209643E+01  6.690789185E+02
3.214227556E+01  6.687796631E+02
3.215245469E+01  6.684192505E+02
3.216263383E+01  6.683892212E+02
3.217281296E+01  6.663740234E+02
3.218299209E+01  6.653244629E+02
3.219317122E+01  6.666887207E+02
3.220335035E+01  6.677229614E+02
3.221352948E+01  6.677254028E+02
3.222370861E+01  6.678081055E+02
3.223388774E+01  6.737260742E+02
3.224406687E+01  6.917388306E+02
3.225424600E+01  7.114826050E+02
3.226442513E+01  7.204774780E+02
3.227460426E+01  7.240049438E+02
3.228478339E+01  7.257343750E+02
3.229496252E+01  7.270925293E+02
3.230514165E+01  7.307777100E+02
3.231532078E+01  7.346396484E+02
3.232549991E+01  7.379074707E+02
3.233567905E+01  7.383905640E+02
3.234585818E+01  7.380917969E+02
3.235603731E+01  7.376492310E+02
3.236621644E+01  7.379484863E+02
3.237639557E+01  7.386025391E+02
3.238657470E+01  7.395689697E+02
3.239675383E+01  7.402345581E+02
3.240693296E+01  7.417866821E+02
3.241711209E+01  7.429588013E+02
3.242729122E+01  7.428453369E+02
3.243747035E+01  7.411230469E+02
3.244764948E+01  7.395214844E+02
3.245782861E+01  7.387652588E+02
3.246800774E+01  7.378161011E+02
3.247818687E+01  7.381671753E+02
3.248836600E+01  7.404371338E+02
3.249854514E+01  7.396104126E+02
3.250872427E+01  7.380734253E+02
3.251890340E+01  7.387322388E+02
3.252908253E+01  7.384796753E+02
3.253926166E+01  7.383279419E+02
3.254944079E+01  7.365522461E+02
3.255961992E+01  7.356405640E+02
3.256979905E+01  7.366032104E+02
3.257997818E+01  7.369389648E+02
3.259015731E+01  7.357358398E+02
3.260033644E+01  7.363491211E+02
3.261051557E+01  7.389005127E+02
3.262069470E+01  7.402634888E+02
3.263087383E+01  7.356500854E+02
3.264105296E+01  7.300197144E+02
3.265123209E+01  7.276861572E+02
3.266141123E+01  7.303828735E+02
3.267159036E+01  7.355464478E+02
3.268176949E+01  7.355759888E+02
3.269194862E+01  7.328182373E+02
3.270212775E+01  7.311719971E+02
3.271230688E+01  7.302337646E+02
3.272248601E+01  7.278539429E+02
3.273266514E+01  7.263229370E+02
3.274284427E+01  7.256067505E+02
3.275302340E+01  7.259472656E+02
3.276320253E+01  7.244617920E+02
3.277338166E+01  7.199268799E+02
3.278356079E+01  7.171119995E+02
3.279373992E+01  7.164293823E+02
3.280391905E+01  7.140872192E+02
3.281409818E+01  7.087832031E+02
3.282427732E+01  7.064597168E+02
3.283445645E+01  7.067424316E+02
3.284463558E+01  7.047098389E+02
3.285481471E+01  7.041455078E+02
3.286499384E+01  7.062321167E+02
3.287517297E+01  7.060775757E+02
3.288535210E+01  7.023983765E+02
3.289553123E+01  6.982180786E+02
3.290571036E+01  6.970872803E+02
3.291588949E+01  6.963615723E+02
3.292606862E+01  6.952902832E+02
3.293624775E+01  6.953892212E+02
3.294642688E+01  6.922904663E+02
3.295660601E+01  6.870411377E+02
3.296678514E+01  6.808709106E+02
3.297696427E+01  6.762037354E+02
3.298714341E+01  6.737791748E+02
3.299732254E+01  6.701295166E+02
3.300750167E+01  6.661043701E+02
3.301768080E+01  6.645089722E+02
3.302785993E+01  6.646436157E+02
3.303803906E+01  6.630526733E+02
3.304821819E+01  6.579942017E+02
3.305839732E+01  6.519214478E+02
3.306857645E+01  6.468248291E+02
3.307875558E+01  6.436329346E+02
3.308893471E+01  6.409642334E+02
3.309911384E+01  6.363245239E+02
3.310929297E+01  6.302265015E+02
3.311947210E+01  6.267186279E+02
3.312965123E+01  6.263510132E+02
3.313983036E+01  6.228510132E+02
3.315000950E+01  6.186190796E+02
3.316018863E+01  6.142316895E+02
3.317036776E+01  6.093517456E+02
3.318054689E+01  6.051027222E+02
3.319072602E+01  6.004564819E+02
3.320090515E+01  5.936156006E+02
3.321108428E+01  5.872132568E+02
3.322126341E+01  5.828181152E+02
3.323144254E+01  5.752838135E+02
3.324162167E+01  5.705754395E+02
3.325180080E+01  5.711719971E+02
3.326197993E+01  5.703305054E+02
3.327215906E+01  5.686759033E+02
3.328233819E+01  5.650952148E+02
3.329251732E+01  5.637553711E+02
3.330269645E+01  5.632853394E+02
3.331287558E+01  5.643837891E+02
3.332305472E+01  5.696809692E+02
3.333323385E+01  5.690812988E+02
3.334341298E+01  5.728090820E+02
3.335359211E+01  5.774407349E+02
3.336377124E+01  5.722915039E+02
3.337395037E+01  5.683467407E+02
3.338412950E+01  5.723988647E+02
3.339430863E+01  5.716394043E+02
3.340448776E+01  5.669662476E+02
3.341466689E+01  5.665562744E+02
3.342484602E+01  5.663104858E+02
3.343502515E+01  5.638305664E+02
3.344520428E+01  5.626476440E+02
3.345538341E+01  5.625135498E+02
3.346556254E+01  5.587255859E+02
3.347574167E+01  5.507591553E+02
3.348592081E+01  5.476762085E+02
3.349609994E+01  5.535429688E+02
3.350627907E+01  5.521549683E+02
3.351645820E+01  5.413858032E+02
3.352663733E+01  5.378575439E+02
3.353681646E+01  5.401618652E+02
3.354699559E+01  5.344000854E+02
3.355717472E+01  5.249044800E+02
3.356735385E+01  5.272752686E+02
3.357753298E+01  5.208995361E+02
3.358771211E+01  5.049378052E+02
3.359789124E+01  5.079363098E+02
3.360807037E+01  5.131915894E+02
3.361824950E+01  5.156549072E+02
3.362842863E+01  5.198443604E+02
